Nimi,Mikko Happonen
Syntymäaika,"20.5.2002"
Tallennuspäivä,2024-11-09 23:18:00 +0200
Luokitus,Sinusrytmi
Oireet,
Ohjelmistoversio,1.90
Laite,"Watch7,8"
Näytetaajuus,512 hertsiä


Kytkentä,I-kytkentä
Yksikkö,µV

−20,122
−20,061
−20,02
−19,998
−19,995
−20,009
−20,04
−20,086
−20,146
−20,218
−20,3
−20,391
−20,488
−20,589
−20,693
−20,796
−20,897
−20,995
−21,086
−21,169
−21,243
−21,305
−21,355
−21,39
−21,41
−21,414
−21,4
−21,368
−21,318
−21,248
−21,158
−21,048
−20,916
−20,761
−20,583
−20,38
−20,151
−19,896
−19,612
−19,298
−18,955
−18,58
−18,174
−17,734
−17,261
−16,753
−16,211
−15,632
−15,018
−14,366
−13,677
−12,949
−12,182
−11,376
−10,53
−9,642
−8,713
−7,74
−6,724
−5,664
−4,558
−3,406
−2,208
−0,965
0,323
1,656
3,031
4,449
5,905
7,399
8,927
10,486
12,073
13,685
15,318
16,967
18,629
20,297
21,969
23,637
25,298
26,946
28,575
30,178
31,751
33,285
34,776
36,216
37,599
38,916
40,163
41,332
42,417
43,411
44,311
45,109
45,802
46,387
46,859
47,217
47,46
47,585
47,593
47,485
47,262
46,927
46,482
45,931
45,277
44,527
43,684
42,755
41,746
40,664
39,518
38,316
37,067
35,78
34,467
33,139
31,807
30,484
29,18
27,908
26,679
25,505
24,399
23,37
22,43
21,588
20,855
20,239
19,748
19,389
19,169
19,093
19,165
19,389
19,768
20,304
21
21,857
22,877
24,061
25,408
26,917
28,586
30,411
32,387
34,506
36,761
39,14
41,634
44,232
46,926
49,706
52,562
55,486
58,466
61,494
64,56
67,654
70,759
73,861
76,945
79,999
83,017
85,986
88,888
91,704
94,41
96,981
99,392
101,608
103,583
105,275
106,639
107,647
108,289
108,555
108,431
107,91
106,978
105,642
103,928
101,864
99,472
96,783
93,823
90,643
87,325
83,944
80,563
77,22
73,919
70,663
67,465
64,331
61,257
58,217
55,15
52,006
48,758
45,371
41,807
38,011
33,893
29,386
24,452
19,076
13,272
7,066
0,499
−6,425
−13,757
−21,589
−30,046
−39,242
−49,226
−60,043
−71,835
−84,625
−98,126
−111,859
−125,148
−137,319
−148,023
−156,989
−163,631
−167,436
−168,457
−167,11
−164,073
−160,333
−156,556
−153
−151,475
−154,026
−160,593
−171,61
−185,419
−198,17
−209,687
−219,34
−226,768
−235,155
−245,783
−257,817
−267,306
−263,902
−232,223
−159,274
−40,717
118,942
302,828
490,024
664,784
811,988
922,705
991,182
1009,89
979,901
906,492
798,672
669,975
525,88
369,483
204,837
35,843
−123,771
−258,457
−359,71
−423,66
−456,943
−472,2
−475,492
−469,209
−452,273
−419,056
−372,063
−320,362
−272,54
−239,375
−223,867
−220,008
−222,584
−225,393
−225,742
−226,714
−229,743
−235,254
−242,6
−248,882
−252,337
−252,426
−249,141
−243,271
−235,541
−226,521
−216,926
−207,463
−198,862
−191,805
−186,571
−183,146
−181,361
−180,899
−181,441
−182,689
−184,315
−186,016
−187,612
−189,013
−190,173
−191,077
−191,686
−191,943
−191,79
−191,159
−189,999
−188,277
−185,984
−183,138
−179,763
−175,892
−171,549
−166,754
−161,528
−155,897
−149,887
−143,528
−136,861
−129,93
−122,8
−115,557
−108,258
−100,939
−93,617
−86,284
−78,933
−71,56
−64,154
−56,695
−49,165
−41,55
−33,836
−26,02
−18,085
−10,004
−1,747
6,732
15,465
24,472
33,766
43,355
53,24
63,426
73,911
84,681
95,715
106,996
118,501
130,21
142,094
154,113
166,217
178,359
190,492
202,577
214,579
226,462
238,189
249,726
261,032
272,082
282,864
293,369
303,594
313,542
323,216
332,634
341,83
350,823
359,62
368,214
376,58
384,689
392,511
400,004
407,13
413,835
420,047
425,691
430,682
434,926
438,335
440,798
442,184
442,388
441,32
438,912
435,136
429,976
423,428
415,515
406,269
395,739
383,992
371,096
357,131
342,203
326,423
309,924
292,88
275,453
257,803
240,095
222,452
204,983
187,792
170,949
154,516
138,56
123,135
108,3
94,121
80,634
67,862
55,815
44,463
33,767
23,674
14,104
5,002
−3,668
−11,941
−19,827
−27,331
−34,476
−41,278
−47,762
−53,972
−59,935
−65,67
−71,201
−76,524
−81,623
−86,472
−91,015
−95,213
−99,049
−102,508
−105,595
−108,323
−110,695
−112,722
−114,418
−115,784
−116,826
−117,553
−117,971
−118,096
−117,956
−117,584
−117,028
−116,332
−115,529
−114,647
−113,71
−112,733
−111,733
−110,722
−109,707
−108,696
−107,699
−106,728
−105,795
−104,907
−104,069
−103,283
−102,55
−101,865
−101,228
−100,638
−100,094
−99,596
−99,145
−98,74
−98,386
−98,085
−97,838
−97,643
−97,499
−97,405
−97,359
−97,358
−97,4
−97,482
−97,602
−97,757
−97,947
−98,169
−98,423
−98,706
−99,017
−99,354
−99,716
−100,102
−100,508
−100,934
−101,378
−101,839
−102,313
−102,802
−103,302
−103,813
−104,332
−104,86
−105,394
−105,931
−106,472
−107,013
−107,552
−108,088
−108,618
−109,141
−109,656
−110,161
−110,653
−111,133
−111,598
−112,046
−112,476
−112,885
−113,271
−113,632
−113,967
−114,273
−114,55
−114,794
−115,006
−115,185
−115,328
−115,437
−115,51
−115,546
−115,545
−115,507
−115,431
−115,318
−115,168
−114,98
−114,755
−114,493
−114,196
−113,864
−113,498
−113,099
−112,667
−112,203
−111,71
−111,187
−110,637
−110,06
−109,459
−108,836
−108,192
−107,531
−106,852
−106,16
−105,455
−104,74
−104,017
−103,286
−102,55
−101,809
−101,067
−100,324
−99,581
−98,84
−98,103
−97,371
−96,646
−95,927
−95,217
−94,517
−93,827
−93,148
−92,481
−91,827
−91,187
−90,56
−89,948
−89,351
−88,769
−88,202
−87,649
−87,111
−86,586
−86,074
−85,575
−85,088
−84,613
−84,149
−83,696
−83,255
−82,825
−82,406
−81,998
−81,601
−81,215
−80,84
−80,477
−80,125
−79,784
−79,455
−79,139
−78,836
−78,547
−78,271
−78,011
−77,765
−77,535
−77,322
−77,127
−76,95
−76,792
−76,655
−76,54
−76,448
−76,381
−76,339
−76,323
−76,334
−76,371
−76,434
−76,522
−76,633
−76,767
−76,922
−77,096
−77,286
−77,489
−77,703
−77,923
−78,146
−78,368
−78,584
−78,787
−78,974
−79,138
−79,273
−79,374
−79,434
−79,447
−79,407
−79,305
−79,135
−78,89
−78,561
−78,14
−77,621
−76,995
−76,256
−75,399
−74,417
−73,305
−72,06
−70,679
−69,157
−67,495
−65,689
−63,74
−61,65
−59,419
−57,054
−54,558
−51,939
−49,205
−46,365
−43,432
−40,417
−37,336
−34,205
−31,042
−27,866
−24,7
−21,563
−18,48
−15,472
−12,561
−9,765
−7,105
−4,599
−2,266
−0,124
1,811
3,526
5,012
6,266
7,288
8,079
8,644
8,984
9,102
9,003
8,684
8,14
7,37
6,371
5,152
3,743
2,166
0,446
−1,402
−3,385
−5,499
−7,728
−10,049
−12,423
−14,811
−17,186
−19,481
−21,576
−23,398
−24,948
−26,337
−27,823
−29,653
−31,975
−34,931
−38,708
−43,374
−48,769
−54,437
−59,569
−63,332
−65,198
−64,817
−61,814
−56,026
−47,72
−37,624
−27,076
−17,626
−10,316
−5,879
−5,221
−9,075
−17,752
−31,126
−48,145
−67,286
−87,512
−107,868
−126,945
−142,165
−149,924
−146,775
−129,577
−98,805
−57,8
−8,321
46,838
110,563
193,127
301,243
441,678
611,96
791,92
957,846
1081,725
1141,052
1134,988
1074,78
979,599
870,15
751,908
619,482
468,756
299,541
126,107
−25,613
−138,453
−205,478
−233,759
−243,604
−246,391
−244,512
−234,679
−206,351
−159,683
−104,941
−52,768
−16,226
0,919
5,139
2,167
−1,342
−3,272
−7,289
−14,899
−27,014
−41,773
−54,858
−65,293
−72,429
−77,849
−84,57
−90,523
−94,335
−94,286
−87,71
−78,404
−69,76
−64,054
−64,169
−67,554
−71,637
−74,976
−75,884
−76,185
−76,276
−74,589
−69,321
−56,243
−35,885
−13,934
3,658
9,241
1,969
−11,269
−24,673
−32,065
−32,384
−31,264
−30,8
−31,188
−30,432
−22,574
−7,11
12,506
31,252
40,466
36,872
21,2
−3,138
−25,366
−37,322
−33,374
−10,733
21,293
51,367
70,19
70,092
55,958
38,126
24,023
20,363
26,102
34,924
43,541
49,453
52,435
54,989
57,88
60,945
64,392
68,072
72,201
77,491
84,037
91,373
99,268
107,611
116,158
124,72
132,821
139,688
145,334
150,267
154,745
159,236
163,159
165,81
168,541
172,198
178,902
190,782
204,983
219,556
231,724
237,862
241,105
243,949
248,228
257,162
268,585
280,289
291,727
301,379
309,94
318,345
326,234
333,501
339,829
344,805
348,424
350,734
351,655
351,118
349,079
345,497
340,354
333,658
325,418
315,613
304,269
291,476
277,374
262,186
246,161
229,495
212,348
194,851
177,12
159,293
141,513
123,891
106,524
89,521
73,009
57,161
42,161
28,118
15,066
2,989
−8,156
−18,386
−27,69
−36,06
−43,535
−50,173
−56,003
−61,096
−65,556
−69,467
−72,958
−76,193
−79,222
−82,068
−84,853
−87,48
−89,597
−91,203
−92,495
−93,5
−94,759
−96,074
−95,539
−93,214
−90,83
−90,705
−98,369
−115,111
−134,747
−150,097
−151,334
−133,056
−102,753
−71,372
−50,046
−47,55
−60,187
−78,515
−95,173
−103,612
−104,278
−102,475
−100,808
−101,056
−102,926
−103,781
−102,777
−100,027
−95,792
−91,146
−86,626
−82,203
−78,199
−74,88
−72,388
−70,98
−70,554
−70,655
−71,046
−71,611
−72,218
−72,859
−73,454
−73,803
−73,901
−73,902
−73,895
−73,97
−74,167
−74,456
−74,863
−75,442
−76,2
−77,102
−78,104
−79,179
−80,31
−81,468
−82,668
−83,956
−85,411
−87,213
−89,507
−92,245
−95,357
−98,748
−102,107
−105,11
−107,387
−108,307
−107,387
−104,565
−99,862
−93,472
−86,047
−78,268
−70,899
−65,1
−61,846
−61,569
−64,558
−70,867
−79,958
−91,145
−103,576
−115,951
−127,009
−136,008
−142,466
−146,034
−146,814
−145,116
−141,332
−136,182
−130,581
−125,059
−119,728
−114,505
−109,168
−103,615
−97,812
−92,508
−88,25
−84,589
−82,247
−80,386
−77,073
−73,642
−70,451
−70,096
−79,795
−101,79
−135,687
−176,744
−210,222
−224,383
−213,949
−179,486
−135,194
−97,093
−74,451
−72,491
−84,88
−100,633
−113,542
−118,808
−117,563
−114,759
−112,415
−111,967
−113,205
−114,136
−114,237
−113,617
−112,417
−111,264
−110,405
−109,657
−108,897
−107,913
−106,472
−104,536
−102,235
−99,73
−97,104
−94,464
−91,997
−90,124
−89,42
−90,242
−92,491
−95,715
−99,469
−103,376
−107,102
−110,081
−111,446
−110,48
−106,99
−101,453
−94,629
−87,274
−79,927
−73,143
−67,738
−64,524
−64,006
−66,012
−69,862
−74,729
−80,035
−85,417
−90,434
−94,581
−97,368
−98,679
−98,834
−98,37
−97,683
−96,932
−96,205
−95,607
−95,333
−95,517
−96,098
−96,877
−97,689
−98,467
−99,221
−99,998
−100,807
−101,635
−102,505
−103,449
−104,482
−105,597
−106,771
−107,979
−109,227
−110,494
−111,717
−112,863
−113,956
−115,127
−116,541
−118,252
−120,16
−122,098
−123,988
−125,788
−127,397
−128,485
−128,6
−127,432
−124,96
−121,543
−117,569
−113,375
−109,393
−106,246
−104,721
−105,6
−109,42
−116,074
−125,178
−136,11
−147,957
−159,775
−170,45
−178,736
−183,51
−184,151
−180,477
−172,989
−162,724
−150,722
−138,318
−126,888
−117,638
−111,683
−109,77
−111,789
−117,129
−125,022
−134,134
−143,324
−151,795
−158,569
−162,918
−164,699
−163,916
−160,847
−156,471
−151,493
−146,25
−141,243
−136,758
−132,887
−129,893
−127,844
−126,294
−124,965
−123,765
−122,562
−121,433
−120,455
−119,499
−118,503
−117,594
−116,858
−116,383
−116,268
−116,457
−116,939
−117,816
−119,123
−120,883
−123,137
−125,783
−128,712
−131,977
−135,428
−138,653
−141,646
−144,599
−147,458
−150,693
−154,035
−155,447
−155,011
−154,622
−156,514
−166,161
−184,961
−206,578
−224,152
−228,296
−213,47
−187,135
−159,984
−142,984
−145,26
−163,471
−188,325
−212,214
−228,341
−237,189
−244,127
−251,677
−260,976
−270,578
−277,214
−280,027
−279,35
−275,61
−269,381
−260,677
−249,676
−237,542
−225,496
−214,344
−204,686
−196,763
−191,173
−189,114
−191,534
−198,695
−210,718
−226,35
−242,635
−257,281
−267,623
−272,924
−276,335
−278,168
−274,621
−257,135
−211,708
−129,927
−13,107
130,194
286,112
445,342
603,646
755,443
891,071
992,272
1040,206
1026,655
955,838
846,577
722,254
596,931
476,411
356,347
227,59
91,284
−44,502
−165,22
−252,145
−298,462
−306,503
−285,336
−249,359
−205,924
−158,608
−110,192
−62,847
−23,916
−0,016
6,79
−2,234
−18,899
−33,73
−41,355
−37,849
−25,703
−12
−0,768
4,034
2,604
1,137
2,215
6,093
11,122
10,474
1,8
−10,403
−20,461
−19,745
−3,633
21,606
46,817
62,726
62,295
49,396
33,012
19,988
16,229
21,218
29,58
38,414
45,631
50,748
55,657
60,949
66,391
72,02
77,475
82,602
87,627
92,585
97,401
102,086
106,641
111,03
115,25
119,306
123,182
126,903
130,527
134,087
137,601
141,087
144,544
147,976
151,401
154,842
158,325
161,88
165,517
169,241
173,056
176,945
180,896
184,89
188,885
192,864
196,837
200,835
204,924
209,182
213,659
218,399
223,433
228,786
234,492
240,58
247,062
253,967
261,319
269,146
277,5
286,397
295,81
305,693
315,96
326,504
337,238
348,08
358,94
369,747
380,438
390,963
401,29
411,386
421,218
430,755
439,969
448,853
457,419
465,673
473,627
481,311
488,743
495,942
502,929
509,697
516,213
522,437
528,313
533,772
538,722
543,049
546,603
549,234
550,821
551,266
550,494
548,43
544,993
540,112
533,733
525,824
516,37
505,362
492,79
478,691
463,156
446,321
428,386
409,543
389,947
369,745
349,078
328,09
306,942
285,796
264,789
244,077
223,836
204,242
185,487
167,711
150,985
135,346
120,779
107,269
94,824
83,431
73,059
63,674
55,231
47,672
40,95
34,974
29,609
24,723
20,171
15,845
11,685
7,641
3,683
−0,211
−4,062
−7,877
−11,644
−15,355
−19,01
−22,598
−26,107
−29,499
−32,703
−35,658
−38,314
−40,637
−42,617
−44,247
−45,525
−46,465
−47,089
−47,427
−47,514
−47,382
−47,05
−46,547
−45,904
−45,16
−44,369
−43,569
−42,793
−42,069
−41,414
−40,847
−40,382
−40,026
−39,776
−39,63
−39,586
−39,644
−39,808
−40,075
−40,444
−40,909
−41,463
−42,103
−42,824
−43,623
−44,494
−45,434
−46,437
−47,501
−48,624
−49,803
−51,033
−52,308
−53,621
−54,966
−56,337
−57,729
−59,134
−60,547
−61,962
−63,374
−64,78
−66,175
−67,555
−68,917
−70,256
−71,571
−72,858
−74,115
−75,341
−76,534
−77,692
−78,815
−79,903
−80,954
−81,968
−82,945
−83,885
−84,789
−85,658
−86,492
−87,294
−88,065
−88,806
−89,522
−90,214
−90,884
−91,535
−92,17
−92,793
−93,405
−94,009
−94,609
−95,207
−95,805
−96,407
−97,015
−97,631
−98,258
−98,898
−99,553
−100,225
−100,916
−101,627
−102,36
−103,116
−103,896
−104,701
−105,533
−106,391
−107,276
−108,187
−109,125
−110,089
−111,077
−112,089
−113,121
−114,173
−115,243
−116,327
−117,424
−118,53
−119,643
−120,759
−121,875
−122,988
−124,094
−125,19
−126,272
−127,336
−128,38
−129,4
−130,393
−131,355
−132,285
−133,179
−134,035
−134,849
−135,621
−136,346
−137,024
−137,653
−138,23
−138,756
−139,229
−139,648
−140,014
−140,326
−140,587
−140,796
−140,955
−141,065
−141,129
−141,149
−141,127
−141,067
−140,971
−140,843
−140,686
−140,504
−140,3
−140,077
−139,838
−139,587
−139,326
−139,059
−138,789
−138,518
−138,249
−137,986
−137,73
−137,485
−137,253
−137,037
−136,839
−136,661
−136,505
−136,374
−136,267
−136,187
−136,135
−136,112
−136,117
−136,151
−136,214
−136,305
−136,424
−136,569
−136,74
−136,934
−137,151
−137,39
−137,648
−137,926
−138,221
−138,533
−138,861
−139,203
−139,559
−139,927
−140,306
−140,694
−141,09
−141,49
−141,894
−142,299
−142,702
−143,1
−143,491
−143,871
−144,237
−144,586
−144,913
−145,214
−145,486
−145,725
−145,926
−146,085
−146,199
−146,263
−146,273
−146,225
−146,114
−145,936
−145,686
−145,359
−144,948
−144,448
−143,854
−143,161
−142,364
−141,457
−140,437
−139,298
−138,037
−136,651
−135,138
−133,495
−131,722
−129,818
−127,784
−125,625
−123,343
−120,944
−118,432
−115,816
−113,105
−110,311
−107,447
−104,528
−101,569
−98,588
−95,605
−92,641
−89,715
−86,846
−84,052
−81,348
−78,755
−76,292
−73,979
−71,836
−69,881
−68,13
−66,597
−65,293
−64,22
−63,381
−62,773
−62,394
−62,249
−62,345
−62,693
−63,305
−64,19
−65,35
−66,778
−68,453
−70,346
−72,426
−74,671
−77,068
−79,606
−82,262
−85,007
−87,807
−90,612
−93,384
−96,05
−98,478
−100,595
−102,42
−104,061
−105,766
−107,755
−110,107
−112,919
−116,369
−120,498
−125,188
−130,058
−134,355
−137,479
−139,299
−139,814
−139,024
−136,999
−133,869
−130,152
−126,993
−125,363
−125,497
−127,267
−130,457
−135,094
−141,508
−149,666
−158,954
−168,749
−178,926
−189,972
−201,576
−211,361
−216,442
−214,078
−203,609
−188,494
−170,831
−148,344
−115,249
−60,522
25,677
144,412
291,804
458,79
631,746
800,069
950,481
1065,846
1132,148
1138,542
1085,804
987,159
859,732
719,243
570,902
413,414
247,034
77,149
−79,479
−204,042
−286,169
−324,469
−329,782
−317,507
−296,907
−272,784
−245,193
−211,478
−173,292
−134,379
−98,376
−69,63
−49,959
−38,932
−35,835
−39,025
−46,424
−56,463
−67,706
−78,464
−87,517
−93,992
−97,118
−96,924
−93,994
−88,905
−82,333
−75,093
−67,815
−61,129
−55,698
−51,697
−48,98
−47,313
−46,299
−45,553
−44,79
−43,714
−42,042
−39,663
−36,583
−32,871
−28,698
−24,212
−19,507
−14,648
−9,665
−4,574
0,591
5,785
10,96
16,068
21,064
25,918
30,599
35,084
39,374
43,498
47,513
51,489
55,471
59,465
63,443
67,387
71,298
75,188
79,072
82,955
86,846
90,766
94,75
98,835
103,044
107,386
111,852
116,438
121,15
126,015
131,064
136,33
141,838
147,616
153,699
160,119
166,894
174,031
181,519
189,342
197,488
205,935
214,654
223,615
232,787
242,143
251,666
261,331
271,105
280,951
290,817
300,669
310,49
320,267
329,989
339,659
349,286
358,905
368,577
378,343
388,219
398,201
408,251
418,341
428,449
438,541
448,583
458,51
468,233
477,669
486,737
495,33
503,322
510,554
516,818
521,965
525,882
528,484
529,73
529,571
527,961
524,876
520,322
514,327
506,943
498,205
488,145
476,828
464,347
450,841
436,49
421,421
405,727
389,498
372,803
355,726
338,363
320,791
303,068
285,254
267,419
249,663
232,106
214,858
198
181,585
165,645
150,251
135,485
121,419
108,117
95,623
83,961
73,163
63,261
54,267
46,16
38,89
32,373
26,517
21,244
16,495
12,208
8,305
4,708
1,349
−1,822
−4,841
−7,734
−10,532
−13,265
−15,948
−18,573
−21,119
−23,545
−25,799
−27,844
−29,657
−31,212
−32,488
−33,469
−34,148
−34,532
−34,641
−34,496
−34,113
−33,512
−32,714
−31,75
−30,654
−29,469
−28,237
−26,996
−25,774
−24,599
−23,491
−22,467
−21,541
−20,719
−19,998
−19,379
−18,863
−18,451
−18,145
−17,943
−17,841
−17,837
−17,924
−18,1
−18,36
−18,701
−19,12
−19,613
−20,178
−20,813
−21,517
−22,286
−23,116
−24,005
−24,945
−25,933
−26,963
−28,03
−29,128
−30,253
−31,399
−32,564
−33,743
−34,933
−36,131
−37,335
−38,543
−39,751
−40,96
−42,166
−43,369
−44,566
−45,758
−46,942
−48,116
−49,28
−50,433
−51,573
−52,7
−53,812
−54,908
−55,989
−57,053
−58,102
−59,133
−60,148
−61,146
−62,128
−63,094
−64,044
−64,98
−65,901
−66,808
−67,702
−68,583
−69,452
−70,309
−71,153
−71,986
−72,807
−73,615
−74,412
−75,197
−75,971
−76,734
−77,486
−78,227
−78,959
−79,682
−80,396
−81,103
−81,803
−82,497
−83,186
−83,87
−84,551
−85,23
−85,908
−86,586
−87,264
−87,945
−88,628
−89,314
−90,004
−90,699
−91,399
−92,105
−92,816
−93,535
−94,261
−94,995
−95,738
−96,49
−97,252
−98,023
−98,805
−99,598
−100,402
−101,216
−102,04
−102,875
−103,719
−104,573
−105,435
−106,304
−107,179
−108,059
−108,943
−109,828
−110,713
−111,595
−112,474
−113,347
−114,212
−115,067
−115,911
−116,741
−117,556
−118,354
−119,134
−119,892
−120,629
−121,341
−122,028
−122,687
−123,317
−123,917
−124,486
−125,022
−125,524
−125,992
−126,425
−126,824
−127,187
−127,517
−127,812
−128,074
−128,305
−128,506
−128,678
−128,825
−128,949
−129,052
−129,137
−129,206
−129,264
−129,313
−129,357
−129,399
−129,441
−129,488
−129,542
−129,607
−129,687
−129,783
−129,9
−130,04
−130,206
−130,401
−130,627
−130,887
−131,182
−131,513
−131,883
−132,29
−132,736
−133,219
−133,738
−134,291
−134,877
−135,493
−136,135
−136,799
−137,481
−138,176
−138,879
−139,583
−140,281
−140,968
−141,635
−142,276
−142,883
−143,449
−143,965
−144,424
−144,819
−145,14
−145,38
−145,531
−145,584
−145,531
−145,365
−145,079
−144,666
−144,121
−143,438
−142,613
−141,642
−140,522
−139,252
−137,831
−136,258
−134,536
−132,666
−130,654
−128,505
−126,226
−123,826
−121,315
−118,707
−116,013
−113,251
−110,438
−107,591
−104,732
−101,881
−99,061
−96,294
−93,601
−91,006
−88,529
−86,191
−84,012
−82,013
−80,213
−78,635
−77,295
−76,209
−75,385
−74,829
−74,543
−74,526
−74,779
−75,303
−76,1
−77,168
−78,509
−80,129
−82,024
−84,187
−86,598
−89,214
−91,997
−94,912
−97,933
−101,053
−104,256
−107,508
−110,772
−113,994
−117,124
−120,134
−122,956
−125,478
−127,654
−129,501
−131,156
−132,903
−134,959
−137,427
−140,421
−144,064
−148,399
−153,349
−158,519
−163,203
−166,864
−169,253
−170,273
−169,893
−168,036
−164,721
−160,505
−156,503
−153,468
−151,574
−150,879
−151,2
−153,393
−159,452
−169,153
−180,746
−191,586
−196,473
−194,432
−188,898
−182,71
−182,364
−190,512
−201,032
−207,602
−199,478
−165,002
−102,056
−10,181
108,575
246,967
402,397
570,675
741,229
900,69
1028,347
1103,504
1115,594
1065,439
966,225
835,756
686,388
524,336
352,987
178,717
16,588
−115,699
−207,45
−258,031
−278,757
−285,082
−285,711
−282,944
−273,959
−254,776
−226,452
−193,311
−160,105
−130,981
−107,91
−91,227
−80,833
−76,309
−76,755
−80,867
−87,431
−95,442
−103,763
−111,461
−117,646
−121,377
−122,428
−121,134
−117,876
−113,158
−107,592
−101,678
−96,038
−91,396
−88,018
−85,859
−84,747
−84,334
−84,286
−84,327
−84,13
−83,35
−81,824
−79,508
−76,434
−72,721
−68,458
−63,714
−58,579
−53,147
−47,496
−41,69
−35,791
−29,853
−23,944
−18,138
−12,492
−7,047
−1,828
3,154
7,896
12,403
16,687
20,769
24,664
28,386
31,951
35,377
38,686
41,904
45,06
48,182
51,3
54,44
57,628
60,885
64,231
67,685
71,265
74,991
78,882
82,959
87,242
91,751
96,506
101,526
106,827
112,421
118,32
124,535
131,079
137,964
145,198
152,775
160,69
168,929
177,473
186,298
195,369
204,64
214,067
223,607
233,221
242,879
252,542
262,162
271,691
281,07
290,256
299,226
307,958
316,438
324,669
332,663
340,456
348,11
355,662
363,135
370,539
377,858
385,087
392,233
399,293
406,274
413,164
419,911
426,457
432,727
438,603
443,95
448,596
452,327
454,974
456,395
456,464
455,093
452,195
447,668
441,43
433,395
423,49
411,7
398,046
382,58
365,425
346,74
326,73
305,659
283,767
261,278
238,415
215,371
192,346
169,566
147,258
125,663
105,031
85,551
67,373
50,608
35,308
21,489
9,127
−1,858
−11,55
−20,032
−27,393
−33,704
−39,052
−43,556
−47,356
−50,623
−53,533
−56,227
−58,815
−61,383
−63,989
−66,673
−69,452
−72,308
−75,21
−78,132
−81,053
−83,96
−86,838
−89,645
−92,326
−94,806
−97,015
−98,909
−100,458
−101,645
−102,466
−102,924
−103,036
−102,839
−102,377
−101,689
−100,807
−99,757
−98,568
−97,28
−95,935
−94,584
−93,267
−92,014
−90,849
−89,793
−88,861
−88,065
−87,407
−86,882
−86,484
−86,209
−86,055
−86,022
−86,108
−86,305
−86,608
−87,008
−87,499
−88,076
−88,733
−89,464
−90,262
−91,122
−92,039
−93,01
−94,031
−95,094
−96,192
−97,319
−98,466
−99,626
−100,794
−101,961
−103,12
−104,266
−105,393
−106,499
−107,577
−108,624
−109,637
−110,613
−111,549
−112,443
−113,294
−114,1
−114,861
−115,576
−116,244
−116,864
−117,437
−117,962
−118,438
−118,866
−119,246
−119,579
−119,867
−120,109
−120,309
−120,469
−120,589
−120,674
−120,726
−120,746
−120,738
−120,705
−120,649
−120,572
−120,478
−120,368
−120,245
−120,111
−119,967
−119,815
−119,656
−119,491
−119,321
−119,147
−118,971
−118,792
−118,611
−118,431
−118,251
−118,074
−117,899
−117,729
−117,564
−117,404
−117,251
−117,105
−116,965
−116,833
−116,708
−116,59
−116,478
−116,373
−116,272
−116,177
−116,085
−115,997
−115,91
−115,825
−115,74
−115,655
−115,569
−115,482
−115,394
−115,304
−115,213
−115,121
−115,029
−114,935
−114,841
−114,747
−114,651
−114,554
−114,455
−114,355
−114,252
−114,146
−114,036
−113,923
−113,806
−113,685
−113,559
−113,428
−113,291
−113,149
−113,001
−112,848
−112,689
−112,526
−112,357
−112,184
−112,006
−111,824
−111,637
−111,446
−111,25
−111,049
−110,841
−110,627
−110,406
−110,177
−109,94
−109,695
−109,442
−109,182
−108,913
−108,638
−108,356
−108,069
−107,777
−107,482
−107,184
−106,885
−106,588
−106,293
−106,002
−105,718
−105,442
−105,176
−104,921
−104,679
−104,451
−104,24
−104,046
−103,872
−103,718
−103,587
−103,48
−103,399
−103,346
−103,322
−103,329
−103,366
−103,435
−103,537
−103,669
−103,833
−104,026
−104,247
−104,496
−104,768
−105,061
−105,372
−105,697
−106,031
−106,37
−106,706
−107,036
−107,351
−107,646
−107,913
−108,147
−108,339
−108,484
−108,572
−108,598
−108,553
−108,429
−108,218
−107,912
−107,503
−106,983
−106,346
−105,585
−104,694
−103,667
−102,5
−101,188
−99,729
−98,119
−96,358
−94,443
−92,377
−90,161
−87,799
−85,296
−82,658
−79,894
−77,015
−74,033
−70,961
−67,815
−64,612
−61,37
−58,109
−54,85
−51,614
−48,421
−45,294
−42,253
−39,32
−36,515
−33,858
−31,37
−29,071
−26,98
−25,116
−23,493
−22,118
−20,998
−20,138
−19,542
−19,221
−19,178
−19,419
−19,95
−20,776
−21,9
−23,32
−25,022
−26,97
−29,125
−31,444
−33,89
−36,439
−39,073
−41,762
−44,463
−47,122
−49,688
−52,113
−54,357
−56,349
−57,997
−59,292
−60,312
−61,235
−62,32
−63,765
−65,665
−68,18
−71,532
−75,745
−80,697
−86,055
−91,248
−95,948
−100,098
−103,492
−105,792
−106,888
−106,822
−105,975
−105,1
−104,499
−104,113
−104,258
−105,507
−108,263
−113,005
−119,899
−128,612
−139,522
−152,029
−163,029
−169,356
−168,013
−158,895
−147,655
−137,966
−128,161
−110,283
−66,874
16,437
143,39
309,531
497,285
685,884
860,122
1003,711
1105,696
1159,628
1158,511
1105,424
1008,868
877,995
725,583
559,506
387,093
220,044
69,902
−50,315
−133,71
−183,635
−208,611
−220,536
−226,99
−228,95
−224,953
−212,69
−192,795
−168,639
−143,861
−121,341
−102,053
−86,052
−73,08
−62,562
−54,285
−48,123
−43,744
−41,128
−40,3
−40,902
−42,559
−44,885
−47,263
−49,102
−50,146
−50,219
−49,266
−47,523
−45,242
−42,655
−40,16
−38,195
−36,913
−36,301
−36,243
−36,455
−36,706
−36,833
−36,597
−35,753
−34,182
−31,844
−28,753
−24,997
−20,649
−15,788
−10,547
−5,055
0,581
6,262
11,91
17,461
22,853
28,052
33,046
37,832
42,412
46,787
50,954
54,916
58,686
62,287
65,753
69,115
72,4
75,64
78,869
82,124
85,435
88,823
92,303
95,887
99,594
103,44
107,446
111,628
116
120,58
125,384
130,425
135,716
141,267
147,091
153,198
159,604
166,318
173,341
180,669
188,292
196,195
204,354
212,741
221,312
230,026
238,845
247,739
256,685
265,653
274,608
283,507
292,306
300,975
309,499
317,863
326,058
334,085
341,96
349,723
357,431
365,125
372,819
380,506
388,16
395,756
403,274
410,696
417,989
425,098
431,954
438,488
444,628
450,286
455,346
459,646
463,011
465,294
466,382
466,203
464,705
461,842
457,572
451,857
444,685
436,08
426,072
414,697
402,001
388,037
372,908
356,783
339,838
322,245
304,156
285,697
266,986
248,159
229,349
210,698
192,34
174,376
156,91
140,048
123,887
108,537
94,062
80,469
67,756
55,914
44,927
34,795
25,509
17,022
9,285
2,232
−4,224
−10,139
−15,571
−20,588
−25,253
−29,648
−33,835
−37,839
−41,679
−45,369
−48,916
−52,337
−55,64
−58,806
−61,811
−64,621
−67,185
−69,479
−71,484
−73,181
−74,557
−75,595
−76,282
−76,629
−76,655
−76,38
−75,826
−75,012
−73,958
−72,701
−71,282
−69,743
−68,133
−66,491
−64,846
−63,226
−61,656
−60,156
−58,745
−57,431
−56,216
−55,106
−54,103
−53,214
−52,443
−51,789
−51,25
−50,821
−50,498
−50,276
−50,153
−50,123
−50,183
−50,33
−50,559
−50,87
−51,259
−51,725
−52,261
−52,862
−53,52
−54,229
−54,982
−55,771
−56,588
−57,426
−58,28
−59,143
−60,011
−60,88
−61,745
−62,603
−63,45
−64,285
−65,105
−65,909
−66,694
−67,46
−68,206
−68,931
−69,635
−70,318
−70,98
−71,62
−72,239
−72,837
−73,414
−73,972
−74,51
−75,03
−75,534
−76,023
−76,498
−76,962
−77,417
−77,865
−78,309
−78,751
−79,192
−79,635
−80,08
−80,529
−80,982
−81,44
−81,903
−82,371
−82,844
−83,321
−83,804
−84,29
−84,781
−85,274
−85,771
−86,271
−86,772
−87,275
−87,779
−88,283
−88,787
−89,291
−89,793
−90,294
−90,792
−91,287
−91,778
−92,264
−92,744
−93,217
−93,682
−94,138
−94,583
−95,017
−95,439
−95,849
−96,247
−96,632
−97,004
−97,364
−97,712
−98,048
−98,372
−98,687
−98,991
−99,285
−99,571
−99,849
−100,12
−100,385
−100,644
−100,9
−101,153
−101,404
−101,655
−101,906
−102,158
−102,414
−102,673
−102,938
−103,21
−103,49
−103,78
−104,082
−104,398
−104,728
−105,074
−105,438
−105,822
−106,225
−106,65
−107,097
−107,567
−108,061
−108,578
−109,121
−109,688
−110,281
−110,899
−111,541
−112,207
−112,896
−113,608
−114,341
−115,094
−115,865
−116,653
−117,457
−118,274
−119,104
−119,944
−120,793
−121,65
−122,511
−123,376
−124,242
−125,106
−125,965
−126,817
−127,659
−128,488
−129,3
−130,092
−130,861
−131,603
−132,316
−132,996
−133,639
−134,243
−134,804
−135,32
−135,787
−136,202
−136,564
−136,868
−137,115
−137,3
−137,422
−137,479
−137,469
−137,389
−137,236
−137,007
−136,698
−136,305
−135,823
−135,25
−134,583
−133,818
−132,955
−131,993
−130,933
−129,775
−128,52
−127,169
−125,721
−124,175
−122,532
−120,791
−118,952
−117,016
−114,981
−112,851
−110,631
−108,326
−105,943
−103,485
−100,951
−98,348
−95,688
−92,986
−90,262
−87,538
−84,836
−82,187
−79,632
−77,207
−74,949
−72,885
−71,028
−69,389
−67,98
−66,814
−65,906
−65,258
−64,842
−64,628
−64,589
−64,689
−64,9
−65,179
−65,449
−65,65
−65,738
−65,677
−65,464
−65,095
−64,551
−63,816
−62,883
−61,765
−60,517
−59,214
−57,915
−56,673
−55,525
−54,516
−53,728
−53,228
−53,053
−53,217
−53,674
−54,431
−55,595
−57,335
−59,862
−63,347
−67,838
−73,38
−80,11
−88,034
−96,938
−106,39
−115,674
−124,125
−131,34
−136,881
−140,169
−140,824
−138,811
−134,502
−128,768
−122,546
−116,499
−111,508
−108,822
−109,478
−114,175
−123,148
−135,883
−151,752
−169,455
−185,871
−197,196
−199,491
−190,792
−173,555
−150,212
−120,892
−82,222
−23,674
64,633
186,553
341,168
517,036
696,867
863,554
997,447
1083,396
1114,373
1090,037
1019,35
915,77
789,983
648,804
496,948
339,517
186,736
52,419
−53,837
−128,936
−177,798
−210,051
−231,748
−244,659
−247,119
−236,585
−214,385
−184,366
−151,276
−119,763
−92,155
−69,743
−53,444
−43,226
−38,884
−39,748
−44,411
−51,646
−60,458
−69,562
−77,878
−84,492
−88,476
−89,603
−88,213
−84,697
−79,593
−73,602
−67,295
−61,302
−56,308
−52,544
−49,962
−48,411
−47,575
−47,151
−46,899
−46,548
−45,853
−44,727
−43,154
−41,158
−38,795
−36,072
−33,001
−29,63
−26,01
−22,192
−18,207
−14,082
−9,858
−5,58
−1,29
2,999
7,316
11,696
16,145
20,663
25,219
29,77
34,297
38,788
43,221
47,59
51,891
56,128
60,329
64,522
68,723
72,939
77,163
81,386
85,617
89,872
94,174
98,561
103,059
107,696
112,508
117,522
122,758
128,233
133,952
139,919
146,143
152,637
159,412
166,47
173,809
181,418
189,283
197,381
205,679
214,133
222,703
231,348
240,036
248,74
257,424
266,059
274,615
283,058
291,365
299,528
307,538
315,391
323,102
330,682
338,156
345,567
352,93
360,252
367,527
374,732
381,849
388,852
395,693
402,318
408,66
414,629
420,137
425,088
429,349
432,804
435,335
436,809
437,146
436,282
434,162
430,764
426,067
420,065
412,785
404,272
394,582
383,792
371,98
359,235
345,687
331,449
316,631
301,348
285,667
269,651
253,375
236,894
220,266
203,554
186,804
170,058
153,366
136,779
120,357
104,166
88,255
72,684
57,518
42,829
28,718
15,276
2,572
−9,328
−20,368
−30,512
−39,731
−48,005
−55,336
−61,747
−67,279
−71,992
−75,96
−79,258
−81,963
−84,158
−85,943
−87,405
−88,62
−89,653
−90,552
−91,361
−92,117
−92,846
−93,566
−94,276
−94,967
−95,613
−96,177
−96,627
−96,944
−97,104
−97,089
−96,886
−96,487
−95,898
−95,138
−94,221
−93,166
−91,989
−90,711
−89,358
−87,958
−86,547
−85,16
−83,83
−82,578
−81,424
−80,381
−79,461
−78,67
−78,007
−77,466
−77,039
−76,722
−76,511
−76,4
−76,384
−76,452
−76,597
−76,807
−77,075
−77,392
−77,75
−78,144
−78,566
−79,01
−79,473
−79,951
−80,44
−80,937
−81,436
−81,932
−82,421
−82,9
−83,365
−83,812
−84,238
−84,643
−85,024
−85,383
−85,719
−86,032
−86,325
−86,599
−86,854
−87,095
−87,322
−87,538
−87,747
−87,95
−88,151
−88,352
−88,556
−88,764
−88,98
−89,205
−89,441
−89,69
−89,952
−90,229
−90,521
−90,83
−91,155
−91,496
−91,853
−92,225
−92,612
−93,012
−93,424
−93,847
−94,278
−94,717
−95,161
−95,607
−96,054
−96,499
−96,939
−97,374
−97,799
−98,214
−98,615
−99,001
−99,37
−99,719
−100,047
−100,352
−100,634
−100,89
−101,121
−101,325
−101,502
−101,651
−101,774
−101,87
−101,94
−101,986
−102,007
−102,007
−101,986
−101,945
−101,888
−101,815
−101,729
−101,632
−101,525
−101,41
−101,288
−101,162
−101,032
−100,901
−100,769
−100,637
−100,508
−100,38
−100,256
−100,136
−100,021
−99,911
−99,807
−99,708
−99,615
−99,528
−99,446
−99,369
−99,298
−99,23
−99,165
−99,103
−99,043
−98,982
−98,921
−98,858
−98,792
−98,721
−98,645
−98,562
−98,473
−98,375
−98,269
−98,155
−98,032
−97,902
−97,763
−97,617
−97,465
−97,308
−97,146
−96,981
−96,815
−96,649
−96,486
−96,327
−96,174
−96,03
−95,896
−95,775
−95,67
−95,581
−95,512
−95,465
−95,443
−95,447
−95,48
−95,545
−95,644
−95,779
−95,95
−96,162
−96,413
−96,707
−97,043
−97,422
−97,844
−98,31
−98,818
−99,368
−99,957
−100,585
−101,248
−101,944
−102,67
−103,42
−104,192
−104,98
−105,78
−106,586
−107,393
−108,195
−108,987
−109,762
−110,513
−111,233
−111,916
−112,553
−113,138
−113,664
−114,124
−114,509
−114,813
−115,029
−115,15
−115,17
−115,08
−114,875
−114,548
−114,095
−113,51
−112,789
−111,929
−110,926
−109,779
−108,486
−107,047
−105,464
−103,736
−101,866
−99,857
−97,715
−95,445
−93,055
−90,553
−87,948
−85,253
−82,48
−79,645
−76,763
−73,854
−70,937
−68,032
−65,162
−62,349
−59,613
−56,976
−54,456
−52,073
−49,845
−47,787
−45,918
−44,255
−42,813
−41,604
−40,636
−39,909
−39,423
−39,172
−39,153
−39,367
−39,812
−40,488
−41,399
−42,55
−43,945
−45,587
−47,462
−49,535
−51,776
−54,152
−56,643
−59,252
−61,971
−64,776
−67,636
−70,498
−73,314
−76,05
−78,636
−80,945
−82,919
−84,577
−86,061
−87,668
−89,667
−92,203
−95,434
−99,558
−104,614
−110,402
−116,431
−121,862
−125,907
−128,148
−128,272
−125,898
−120,946
−113,775
−105,181
−96,56
−89,354
−84,382
−82,346
−84,253
−90,737
−101,886
−117,452
−136,353
−157,103
−178,963
−200,102
−216,63
−225,329
−223,412
−210,192
−189,322
−162,794
−128,409
−81,217
−12,603
83,896
206,907
351,203
509,006
668,995
820,588
950,737
1041,428
1080,446
1064,77
999,78
902,338
787,835
661,382
526,121
382,207
233,764
96,099
−18,575
−103,693
−159,202
−195,054
−218,822
−233,183
−238,268
−230,921
−211,271
−182,922
−150,262
−118,21
−89,61
−65,85
−48,012
−36,341
−30,773
−30,738
−34,847
−41,749
−50,392
−59,545
−68,118
−75,167
−79,772
−81,686
−81,259
−78,939
−75,239
−70,778
−66,088
−61,77
−58,482
−56,465
−55,646
−55,817
−56,625
−57,727
−58,835
−59,635
−59,808
−59,199
−57,774
−55,565
−52,684
−49,221
−45,247
−40,849
−36,118
−31,127
−25,942
−20,624
−15,229
−9,824
−4,479
0,753
5,834
10,74
15,461
19,995
24,349
28,535
32,573
36,479
40,262
43,939
47,524
51,036
54,497
57,931
61,359
64,807
68,298
71,853
75,493
79,235
83,095
87,089
91,232
95,545
100,046
104,749
109,675
114,843
120,275
125,995
132,021
138,358
145,009
151,972
159,238
166,795
174,619
182,673
190,925
199,348
207,918
216,619
225,425
234,302
243,213
252,117
260,988
269,811
278,572
287,258
295,872
304,426
312,958
321,52
330,14
338,826
347,568
356,338
365,113
373,871
382,579
391,196
399,662
407,9
415,835
423,384
430,439
436,876
442,539
447,261
450,911
453,379
454,581
454,457
452,949
450,013
445,623
439,772
432,471
423,754
413,663
402,261
389,633
375,889
361,158
345,587
329,311
312,46
295,161
277,527
259,68
241,741
223,821
206,045
188,523
171,344
154,589
138,319
122,591
107,46
92,977
79,175
66,082
53,708
42,057
31,139
20,943
11,445
2,605
−5,648
−13,373
−20,607
−27,379
−33,71
−39,628
−45,177
−50,407
−55,351
−60,034
−64,472
−68,677
−72,67
−76,456
−80,023
−83,34
−86,354
−89,031
−91,359
−93,337
−94,97
−96,26
−97,2
−97,789
−98,039
−97,968
−97,595
−96,938
−96,011
−94,839
−93,458
−91,917
−90,271
−88,563
−86,827
−85,09
−83,375
−81,706
−80,104
−78,585
−77,155
−75,821
−74,591
−73,475
−72,483
−71,619
−70,883
−70,27
−69,777
−69,398
−69,132
−68,973
−68,918
−68,962
−69,101
−69,333
−69,656
−70,066
−70,557
−71,124
−71,757
−72,45
−73,195
−73,983
−74,805
−75,653
−76,519
−77,397
−78,278
−79,158
−80,029
−80,886
−81,724
−82,538
−83,325
−84,079
−84,799
−85,482
−86,127
−86,731
−87,294
−87,816
−88,297
−88,737
−89,136
−89,495
−89,817
−90,101
−90,349
−90,563
−90,746
−90,899
−91,026
−91,128
−91,209
−91,273
−91,321
−91,358
−91,386
−91,408
−91,427
−91,445
−91,464
−91,486
−91,514
−91,548
−91,591
−91,643
−91,705
−91,779
−91,865
−91,963
−92,074
−92,197
−92,332
−92,479
−92,637
−92,807
−92,987
−93,177
−93,376
−93,584
−93,798
−94,02
−94,246
−94,477
−94,711
−94,947
−95,184
−95,42
−95,655
−95,887
−96,116
−96,34
−96,56
−96,773
−96,98
−97,18
−97,372
−97,557
−97,734
−97,903
−98,064
−98,218
−98,364
−98,503
−98,635
−98,76
−98,879
−98,993
−99,101
−99,204
−99,303
−99,398
−99,49
−99,579
−99,665
−99,75
−99,834
−99,917
−100,001
−100,084
−100,169
−100,255
−100,343
−100,434
−100,527
−100,623
−100,722
−100,824
−100,929
−101,037
−101,148
−101,261
−101,377
−101,495
−101,615
−101,737
−101,86
−101,984
−102,108
−102,231
−102,354
−102,476
−102,596
−102,715
−102,831
−102,946
−103,058
−103,168
−103,277
−103,383
−103,487
−103,589
−103,689
−103,788
−103,886
−103,983
−104,081
−104,179
−104,28
−104,382
−104,488
−104,598
−104,713
−104,834
−104,961
−105,096
−105,238
−105,391
−105,554
−105,729
−105,917
−106,12
−106,34
−106,576
−106,831
−107,105
−107,398
−107,71
−108,041
−108,392
−108,76
−109,147
−109,55
−109,969
−110,403
−110,85
−111,307
−111,772
−112,242
−112,714
−113,184
−113,649
−114,105
−114,548
−114,975
−115,381
−115,762
−116,113
−116,429
−116,703
−116,931
−117,106
−117,22
−117,266
−117,236
−117,123
−116,919
−116,619
−116,216
−115,705
−115,082
−114,344
−113,487
−112,508
−111,405
−110,172
−108,807
−107,303
−105,659
−103,872
−101,939
−99,863
−97,644
−95,286
−92,797
−90,182
−87,448
−84,6
−81,64
−78,575
−75,416
−72,181
−68,892
−65,58
−62,281
−59,032
−55,875
−52,844
−49,968
−47,264
−44,741
−42,402
−40,247
−38,284
−36,534
−35,011
−33,731
−32,693
−31,89
−31,298
−30,88
−30,595
−30,393
−30,239
−30,109
−30,004
−29,953
−29,996
−30,19
−30,562
−31,114
−31,836
−32,71
−33,726
−34,89
−36,22
−37,75
−39,518
−41,559
−43,89
−46,518
−49,409
−52,504
−55,705
−58,865
−61,922
−64,93
−68,022
−71,407
−75,264
−79,68
−84,757
−90,676
−97,479
−104,972
−112,775
−120,282
−126,942
−132,465
−136,547
−138,701
−138,548
−136,033
−131,427
−125,412
−118,809
−112,213
−106,305
−102,181
−101,064
−103,902
−111,225
−123,214
−138,636
−154,86
−169,313
−178,771
−182,119
−182,256
−180,031
−172,691
−152,756
−106,257
−23,187
96,524
244,76
406,306
567,463
721,443
864,642
991,223
1090,407
1147,723
1149,853
1094,42
989,572
848,683
687,976
517,85
345,648
180,323
30,492
−92,623
−181,989
−238,19
−266,158
−275,435
−272,772
−260,617
−240,107
−210,577
−174,012
−134,748
−96,872
−64,648
−40,449
−24,787
−17,538
−17,505
−22,932
−32,161
−43,514
−55,298
−66,163
−74,92
−80,507
−82,646
−81,687
−78,172
−72,847
−66,525
−59,875
−53,641
−48,628
−45,156
−43,184
−42,524
−42,784
−43,586
−44,632
−45,531
−45,881
−45,485
−44,276
−42,277
−39,607
−36,345
−32,542
−28,291
−23,688
−18,812
−13,734
−8,503
−3,163
2,222
7,58
12,843
17,955
22,886
27,622
32,155
36,487
40,623
44,575
48,365
52,012
55,532
58,945
62,268
65,526
68,747
71,957
75,186
78,459
81,798
85,225
88,76
92,422
96,228
100,195
104,337
108,671
113,216
117,989
123,008
128,284
133,832
139,664
145,798
152,251
159,029
166,134
173,561
181,301
189,34
197,659
206,226
214,999
223,939
233,01
242,182
251,43
260,722
270,017
279,271
288,441
297,494
306,413
315,181
323,785
332,226
340,514
348,685
356,792
364,863
372,906
380,912
388,851
396,703
404,445
412,048
419,474
426,666
433,55
440,056
446,108
451,608
456,438
460,448
463,473
465,385
466,092
465,527
463,651
460,427
455,824
449,841
442,494
433,81
423,831
412,595
400,14
386,543
371,904
356,357
340,061
323,147
305,726
287,905
269,772
251,422
232,956
214,451
195,976
177,621
159,476
141,648
124,272
107,445
91,246
75,743
60,973
46,978
33,806
21,487
10,052
−0,479
−10,104
−18,817
−26,612
−33,517
−39,578
−44,868
−49,5
−53,566
−57,147
−60,33
−63,179
−65,749
−68,102
−70,278
−72,306
−74,218
−76,032
−77,763
−79,437
−81,054
−82,601
−84,054
−85,359
−86,475
−87,377
−88,033
−88,432
−88,57
−88,442
−88,06
−87,449
−86,63
−85,628
−84,469
−83,171
−81,759
−80,265
−78,724
−77,179
−75,669
−74,219
−72,857
−71,602
−70,467
−69,465
−68,601
−67,869
−67,268
−66,796
−66,449
−66,228
−66,13
−66,15
−66,283
−66,521
−66,858
−67,288
−67,804
−68,402
−69,076
−69,818
−70,625
−71,492
−72,416
−73,388
−74,404
−75,456
−76,535
−77,636
−78,75
−79,871
−80,991
−82,105
−83,205
−84,289
−85,35
−86,386
−87,393
−88,368
−89,307
−90,211
−91,076
−91,902
−92,688
−93,434
−94,14
−94,805
−95,432
−96,021
−96,573
−97,09
−97,574
−98,027
−98,451
−98,849
−99,224
−99,578
−99,915
−100,238
−100,551
−100,855
−101,155
−101,453
−101,753
−102,057
−102,367
−102,687
−103,016
−103,358
−103,712
−104,081
−104,464
−104,863
−105,276
−105,704
−106,147
−106,603
−107,071
−107,549
−108,036
−108,531
−109,029
−109,53
−110,03
−110,526
−111,016
−111,496
−111,964
−112,417
−112,852
−113,265
−113,653
−114,016
−114,348
−114,65
−114,918
−115,15
−115,346
−115,504
−115,623
−115,704
−115,744
−115,745
−115,707
−115,631
−115,517
−115,367
−115,182
−114,965
−114,716
−114,44
−114,138
−113,813
−113,468
−113,107
−112,733
−112,349
−111,958
−111,565
−111,172
−110,783
−110,401
−110,029
−109,671
−109,327
−109,002
−108,697
−108,414
−108,155
−107,919
−107,71
−107,526
−107,369
−107,238
−107,134
−107,055
−107,001
−106,97
−106,963
−106,977
−107,011
−107,062
−107,13
−107,211
−107,305
−107,409
−107,52
−107,637
−107,758
−107,88
−108,002
−108,122
−108,238
−108,349
−108,454
−108,551
−108,641
−108,723
−108,797
−108,862
−108,92
−108,971
−109,015
−109,055
−109,091
−109,125
−109,158
−109,193
−109,231
−109,274
−109,324
−109,384
−109,455
−109,539
−109,639
−109,756
−109,891
−110,047
−110,224
−110,424
−110,647
−110,893
−111,162
−111,455
−111,77
−112,105
−112,459
−112,83
−113,214
−113,61
−114,012
−114,418
−114,823
−115,222
−115,609
−115,98
−116,328
−116,646
−116,929
−117,169
−117,36
−117,494
−117,565
−117,566
−117,488
−117,326
−117,072
−116,719
−116,26
−115,689
−114,998
−114,184
−113,24
−112,162
−110,947
−109,592
−108,093
−106,451
−104,664
−102,731
−100,655
−98,438
−96,083
−93,595
−90,981
−88,247
−85,404
−82,462
−79,434
−76,332
−73,172
−69,971
−66,748
−63,522
−60,314
−57,147
−54,042
−51,021
−48,107
−45,319
−42,677
−40,201
−37,908
−35,817
−33,946
−32,312
−30,929
−29,803
−28,94
−28,342
−28,009
−27,943
−28,144
−28,609
−29,341
−30,342
−31,615
−33,159
−34,966
−37,011
−39,262
−41,682
−44,236
−46,907
−49,681
−52,539
−55,453
−58,381
−61,273
−64,081
−66,764
−69,241
−71,415
−73,252
−74,796
−76,215
−77,799
−79,79
−82,323
−85,576
−89,739
−94,801
−100,59
−106,626
−112,091
−116,403
−119,317
−120,546
−119,825
−117,217
−112,946
−107,821
−103,358
−100,377
−99,021
−99,778
−102,926
−109,169
−120,354
−135,875
−153,204
−169,666
−179,832
−181,267
−176,219
−167,109
−160,608
−161,755
−167,067
−169,47
−155,399
−108,923
−23,762
98,176
247,094
407,259
568,736
726,778
875,739
1007,968
1106,934
1153,147
1138,21
1064,891
949,527
813,578
666,747
512,058
349,373
180,036
19,095
−114,797
−210,045
−262,789
−282,694
−285,007
−278,744
−268,175
−252,355
−227,816
−195,717
−159,867
−124,49
−94,169
−71,031
−55,316
−46,908
−44,752
−47,354
−53,307
−61,078
−69,113
−76,191
−81,255
−83,373
−82,296
−78,364
−72,15
−64,486
−56,309
−48,396
−41,52
−36,422
−33,371
−32,288
−32,93
−34,831
−37,491
−40,491
−43,367
−45,698
−47,282
−48,025
−47,898
−46,944
−45,163
−42,554
−39,181
−35,113
−30,413
−25,157
−19,422
−13,309
−6,975
−0,558
5,827
12,096
18,206
24,124
29,815
35,257
40,432
45,335
49,975
54,356
58,48
62,366
66,04
69,546
72,951
76,308
79,659
83,041
86,478
89,992
93,61
97,347
101,216
105,229
109,4
113,747
118,294
123,061
128,062
133,308
138,805
144,565
150,603
156,936
163,572
170,514
177,758
185,299
193,127
201,226
209,566
218,107
226,809
235,636
244,56
253,559
262,602
271,652
280,666
289,6
298,426
307,126
315,687
324,099
332,363
340,495
348,536
356,539
364,541
372,553
380,561
388,535
396,448
404,27
411,975
419,528
426,867
433,92
440,62
446,89
452,636
457,744
462,052
465,387
467,614
468,629
468,373
466,806
463,887
459,591
453,905
446,828
438,383
428,6
417,492
405,092
391,457
376,665
360,871
344,238
326,902
308,99
290,599
271,822
252,773
233,559
214,272
195,017
175,896
157,027
138,571
120,667
103,432
86,979
71,349
56,573
42,699
29,755
17,774
6,781
−3,233
−12,279
−20,36
−27,51
−33,781
−39,25
−44,051
−48,297
−52,085
−55,522
−58,671
−61,588
−64,34
−66,967
−69,5
−71,969
−74,385
−76,752
−79,091
−81,396
−83,646
−85,809
−87,817
−89,621
−91,189
−92,484
−93,49
−94,201
−94,608
−94,722
−94,568
−94,166
−93,542
−92,727
−91,738
−90,605
−89,365
−88,057
−86,728
−85,42
−84,162
−82,979
−81,894
−80,921
−80,071
−79,35
−78,751
−78,273
−77,914
−77,671
−77,543
−77,527
−77,617
−77,806
−78,085
−78,447
−78,886
−79,394
−79,966
−80,595
−81,277
−82,005
−82,777
−83,588
−84,432
−85,302
−86,19
−87,09
−87,994
−88,896
−89,789
−90,667
−91,525
−92,358
−93,164
−93,939
−94,681
−95,387
−96,056
−96,687
−97,279
−97,831
−98,345
−98,819
−99,254
−99,652
−100,014
−100,341
−100,635
−100,898
−101,131
−101,337
−101,517
−101,675
−101,812
−101,931
−102,035
−102,128
−102,213
−102,293
−102,371
−102,451
−102,535
−102,625
−102,725
−102,835
−102,957
−103,092
−103,242
−103,406
−103,586
−103,781
−103,992
−104,218
−104,46
−104,716
−104,987
−105,27
−105,565
−105,871
−106,186
−106,509
−106,839
−107,175
−107,514
−107,855
−108,197
−108,537
−108,873
−109,204
−109,526
−109,837
−110,135
−110,418
−110,684
−110,931
−111,157
−111,362
−111,544
−111,702
−111,836
−111,946
−112,03
−112,09
−112,125
−112,136
−112,124
−112,089
−112,032
−111,956
−111,86
−111,748
−111,62
−111,477
−111,323
−111,157
−110,982
−110,799
−110,61
−110,418
−110,224
−110,03
−109,839
−109,652
−109,472
−109,301
−109,14
−108,99
−108,854
−108,731
−108,623
−108,531
−108,454
−108,393
−108,347
−108,316
−108,3
−108,297
−108,305
−108,324
−108,352
−108,387
−108,426
−108,469
−108,512
−108,554
−108,593
−108,628
−108,656
−108,675
−108,685
−108,683
−108,668
−108,639
−108,594
−108,532
−108,452
−108,354
−108,237
−108,101
−107,947
−107,775
−107,585
−107,38
−107,161
−106,928
−106,684
−106,432
−106,173
−105,911
−105,649
−105,389
−105,135
−104,891
−104,66
−104,444
−104,249
−104,075
−103,927
−103,806
−103,716
−103,658
−103,634
−103,646
−103,695
−103,781
−103,905
−104,066
−104,265
−104,499
−104,766
−105,065
−105,391
−105,742
−106,114
−106,502
−106,901
−107,305
−107,71
−108,108
−108,492
−108,856
−109,192
−109,491
−109,745
−109,947
−110,089
−110,161
−110,155
−110,064
−109,88
−109,595
−109,201
−108,691
−108,058
−107,296
−106,399
−105,361
−104,179
−102,85
−101,369
−99,736
−97,95
−96,011
−93,92
−91,678
−89,289
−86,756
−84,084
−81,281
−78,354
−75,313
−72,169
−68,936
−65,626
−62,255
−58,841
−55,402
−51,959
−48,533
−45,146
−41,819
−38,576
−35,439
−32,43
−29,572
−26,883
−24,382
−22,089
−20,021
−18,196
−16,63
−15,333
−14,31
−13,563
−13,094
−12,902
−12,993
−13,365
−14,015
−14,941
−16,147
−17,631
−19,389
−21,411
−23,663
−26,108
−28,71
−31,435
−34,264
−37,19
−40,187
−43,221
−46,247
−49,211
−52,071
−54,792
−57,305
−59,514
−61,386
−62,972
−64,441
−66,068
−68,088
−70,641
−73,869
−77,963
−82,997
−88,832
−95,085
−101,091
−106,204
−110,083
−112,465
−112,959
−111,361
−107,813
−102,78
−97,25
−92,315
−88,579
−86,605
−87,284
−91,359
−99,213
−110,766
−125,282
−141,73
−159,356
−177,283
−192,741
−201,517
−199,949
−184,589
−156,028
−118,799
−74,224
−22,296
42,135
130,313
247,516
394,958
566,559
744,724
910,641
1043,917
1125,451
1146,872
1110,248
1025,9
911,093
780,171
637,138
484,279
323,426
161,125
15,517
−99,471
−177,465
−220,401
−242,005
−252,448
−255,629
−251,783
−236,791
−210,587
−177,425
−142,185
−110,077
−84,063
−65,13
−53,889
−49,916
−52,104
−58,955
−68,492
−78,993
−88,936
−96,776
−101,222
−101,622
−98,006
−90,951
−81,371
−70,174
−58,298
−46,798
−36,705
−28,663
−22,855
−19,174
−17,301
−16,877
−17,57
−18,941
−20,486
−21,892
−23,016
−23,795
−24,264
−24,414
−24,154
−23,451
−22,307
−20,682
−18,569
−15,961
−12,83
−9,208
−5,16
−0,75
3,934
8,823
13,884
19,069
24,332
29,623
34,864
40
44,997
49,816
54,433
58,839
63,022
66,993
70,784
74,424
77,945
81,382
84,755
88,092
91,429
94,801
98,258
101,839
105,573
109,495
113,632
118,011
122,657
127,581
132,793
138,304
144,129
150,284
156,782
163,625
170,807
178,316
186,137
194,246
202,613
211,199
219,962
228,87
237,897
247,022
256,221
265,459
274,69
283,869
292,963
301,952
310,82
319,553
328,149
336,619
344,999
353,344
361,686
370,031
378,36
386,632
394,814
402,878
410,804
418,557
426,081
433,308
440,174
446,614
452,547
457,857
462,382
465,942
468,392
469,636
469,618
468,309
465,679
461,691
456,319
449,561
441,436
431,964
421,149
408,991
395,512
380,794
364,995
348,292
330,84
312,759
294,143
275,079
255,674
236,047
216,31
196,56
176,901
157,464
138,417
119,953
102,253
85,429
69,524
54,561
40,567
27,583
15,65
4,792
−4,998
−13,742
−21,455
−28,155
−33,885
−38,728
−42,817
−46,322
−49,401
−52,167
−54,693
−57,037
−59,254
−61,4
−63,521
−65,641
−67,763
−69,893
−72,042
−74,226
−76,439
−78,652
−80,803
−82,81
−84,605
−86,147
−87,412
−88,386
−89,065
−89,447
−89,543
−89,384
−89,003
−88,43
−87,686
−86,789
−85,764
−84,645
−83,476
−82,304
−81,168
−80,095
−79,108
−78,223
−77,453
−76,806
−76,28
−75,868
−75,56
−75,352
−75,241
−75,225
−75,301
−75,462
−75,7
−76,009
−76,381
−76,812
−77,296
−77,828
−78,401
−79,012
−79,656
−80,332
−81,035
−81,761
−82,506
−83,262
−84,026
−84,792
−85,558
−86,317
−87,067
−87,806
−88,53
−89,239
−89,932
−90,609
−91,269
−91,914
−92,545
−93,162
−93,767
−94,361
−94,946
−95,523
−96,095
−96,66
−97,222
−97,78
−98,336
−98,891
−99,445
−100
−100,558
−101,118
−101,683
−102,254
−102,83
−103,414
−104,005
−104,604
−105,211
−105,825
−106,445
−107,072
−107,702
−108,336
−108,971
−109,605
−110,236
−110,862
−111,479
−112,086
−112,679
−113,256
−113,815
−114,352
−114,867
−115,356
−115,819
−116,253
−116,658
−117,032
−117,375
−117,685
−117,962
−118,205
−118,414
−118,589
−118,729
−118,836
−118,909
−118,949
−118,958
−118,937
−118,887
−118,811
−118,71
−118,585
−118,441
−118,278
−118,1
−117,91
−117,709
−117,502
−117,291
−117,08
−116,871
−116,667
−116,47
−116,284
−116,11
−115,951
−115,807
−115,681
−115,573
−115,485
−115,418
−115,373
−115,349
−115,347
−115,367
−115,409
−115,472
−115,555
−115,657
−115,776
−115,912
−116,062
−116,225
−116,398
−116,58
−116,769
−116,962
−117,157
−117,351
−117,542
−117,728
−117,906
−118,073
−118,228
−118,367
−118,491
−118,596
−118,682
−118,747
−118,791
−118,812
−118,81
−118,785
−118,737
−118,666
−118,573
−118,458
−118,322
−118,167
−117,995
−117,806
−117,603
−117,387
−117,162
−116,929
−116,692
−116,453
−116,214
−115,977
−115,747
−115,524
−115,311
−115,111
−114,924
−114,752
−114,598
−114,46
−114,34
−114,239
−114,156
−114,09
−114,042
−114,01
−113,992
−113,988
−113,995
−114,009
−114,03
−114,053
−114,074
−114,09
−114,096
−114,088
−114,061
−114,009
−113,926
−113,804
−113,637
−113,417
−113,138
−112,792
−112,373
−111,875
−111,292
−110,622
−109,861
−109,005
−108,05
−106,993
−105,831
−104,56
−103,178
−101,68
−100,066
−98,331
−96,477
−94,504
−92,415
−90,213
−87,899
−85,474
−82,944
−80,32
−77,615
−74,847
−72,039
−69,217
−66,411
−63,66
−61,001
−58,465
−56,086
−53,886
−51,887
−50,108
−48,566
−47,282
−46,261
−45,498
−44,976
−44,669
−44,542
−44,557
−44,667
−44,816
−44,953
−45,036
−45,031
−44,922
−44,7
−44,361
−43,904
−43,318
−42,61
−41,805
−40,938
−40,069
−39,262
−38,574
−38,086
−37,875
−37,99
−38,473
−39,343
−40,582
−42,2
−44,176
−46,452
−49,079
−52,142
−55,745
−60,093
−65,313
−71,404
−78,458
−86,592
−95,646
−105,373
−115,363
−124,848
−133,272
−140,298
−145,35
−147,881
−147,769
−145,023
−140,007
−133,773
−127,183
−120,939
−116,199
−114,22
−115,924
−122,039
−133,024
−147,498
−162,638
−176,003
−184,589
−187,693
−188,615
−188,032
−182,789
−164,934
−120,323
−39,606
76,95
221,347
378,838
538,029
693,158
838,359
965,666
1059,934
1103,96
1090,465
1023,685
919,257
797,411
668,129
531,646
386,168
230,493
74,781
−61,437
−165,193
−230,292
−261,105
−272,621
−274,515
−271,124
−263,54
−247,989
−224,265
−195,896
−166,307
−139,3
−117,142
−100,138
−88,174
−80,92
−77,597
−77,068
−78,294
−80,465
−82,689
−84,293
−84,655
−82,997
−79,17
−73,587
−66,712
−59,109
−51,393
−44,009
−37,503
−32,545
−29,398
−28,018
−28,23
−29,67
−31,973
−34,847
−37,931
−40,831
−43,285
−45,106
−46,184
−46,496
−46,028
−44,783
−42,794
−40,113
−36,794
−32,892
−28,474
−23,617
−18,406
−12,927
−7,258
−1,468
4,364
10,145
15,801
21,274
26,527
31,55
36,335
40,871
45,168
49,244
53,13
56,864
60,48
64,003
67,466
70,9
74,345
77,85
81,455
85,19
89,083
93,155
97,425
101,917
106,645
111,619
116,845
122,33
128,082
134,115
140,442
147,074
154,015
161,259
168,797
176,618
184,705
193,033
201,573
210,279
219,113
228,04
237,03
246,06
255,097
264,1
273,023
281,821
290,46
298,924
307,197
315,269
323,14
330,825
338,365
345,817
353,219
360,582
367,895
375,127
382,259
389,281
396,177
402,92
409,459
415,73
421,673
427,229
432,308
436,788
440,5
443,259
444,926
445,406
444,644
442,604
439,239
434,499
428,359
420,822
411,903
401,622
389,977
376,973
362,672
347,195
330,732
313,484
295,612
277,241
258,479
239,435
220,242
201,032
181,914
162,986
144,362
126,183
108,638
91,907
76,104
61,284
47,441
34,563
22,661
11,755
1,854
−7,053
−14,999
−22,015
−28,116
−33,333
−37,731
−41,421
−44,566
−47,324
−49,801
−52,067
−54,161
−56,12
−57,992
−59,815
−61,609
−63,377
−65,122
−66,853
−68,594
−70,354
−72,115
−73,827
−75,416
−76,814
−77,988
−78,916
−79,593
−80,017
−80,185
−80,109
−79,818
−79,346
−78,718
−77,954
−77,064
−76,065
−74,987
−73,865
−72,746
−71,665
−70,644
−69,706
−68,864
−68,131
−67,513
−67,011
−66,614
−66,313
−66,103
−65,98
−65,943
−65,99
−66,113
−66,304
−66,558
−66,866
−67,224
−67,626
−68,066
−68,539
−69,04
−69,566
−70,116
−70,688
−71,279
−71,885
−72,502
−73,128
−73,76
−74,394
−75,027
−75,657
−76,282
−76,899
−77,51
−78,112
−78,706
−79,291
−79,869
−80,439
−81,003
−81,561
−82,114
−82,663
−83,208
−83,749
−84,289
−84,825
−85,36
−85,892
−86,423
−86,953
−87,481
−88,007
−88,531
−89,053
−89,57
−90,084
−90,591
−91,092
−91,585
−92,068
−92,54
−93
−93,447
−93,879
−94,293
−94,69
−95,067
−95,422
−95,755
−96,063
−96,346
−96,604
−96,834
−97,038
−97,215
−97,364
−97,486
−97,582
−97,651
−97,696
−97,717
−97,714
−97,69
−97,647
−97,585
−97,507
−97,415
−97,313
−97,201
−97,084
−96,963
−96,842
−96,723
−96,609
−96,502
−96,405
−96,32
−96,25
−96,195
−96,159
−96,141
−96,145
−96,17
−96,218
−96,289
−96,383
−96,5
−96,641
−96,805
−96,991
−97,199
−97,427
−97,674
−97,94
−98,224
−98,523
−98,834
−99,155
−99,482
−99,814
−100,151
−100,487
−100,815
−101,139
−101,465
−101,794
−102,134
−102,473
−102,795
−103,109
−103,429
−103,72
−103,961
−104,131
−104,202
−104,196
−104,161
−104,071
−103,876
−103,702
−103,696
−103,772
−103,941
−104,232
−104,329
−105,077
−107,296
−109,813
−112,268
−112,519
−107,987
−101,518
−95,031
−91,341
−94,317
−100,572
−107,219
−112,269
−112,477
−110,184
−107,7
−105,557
−105,232
−105,741
−105,888
−106,007
−105,923
−105,637
−105,777
−105,566
−104,047
−102,34
−100,803
−101,085
−106,394
−114,936
−123,794
−130,033
−127,952
−118,121
−106,057
−95,491
−92,28
−98,135
−107,42
−116,725
−122,705
−122,834
−120,464
−117,787
−115,457
−114,856
−114,931
−114,721
−114,535
−114,195
−113,762
−113,465
−113,153
−112,697
−112,125
−111,421
−110,541
−109,495
−108,295
−106,939
−105,448
−103,845
−102,122
−100,274
−98,309
−96,223
−94,014
−91,684
−89,237
−86,683
−84,041
−81,34
−78,61
−75,889
−73,214
−70,617
−68,124
−65,749
−63,495
−61,365
−59,354
−57,47
−55,73
−54,149
−52,74
−51,507
−50,447
−49,54
−48,748
−48,025
−47,314
−46,579
−45,804
−45
−44,199
−43,454
−42,831
−42,38
−42,131
−42,095
−42,255
−42,604
−43,136
−43,87
−44,861
−46,161
−47,825
−49,88
−52,307
−55,063
−58,089
−61,266
−64,405
−67,399
−70,226
−72,986
−75,949
−79,329
−83,223
−87,741
−93,004
−98,98
−105,465
−112,005
−117,831
−122,332
−125,256
−126,447
−125,792
−123,345
−119,336
−114,333
−109,473
−105,791
−103,61
−103,217
−105,026
−109,045
−116,322
−127,654
−141,404
−156,82
−171,064
−179,557
−182,741
−180,137
−173,969
−171,188
−170,674
−168,122
−155,047
−115,274
−40,485
68,773
206
356,763
509,499
659,16
801,396
929,643
1031,747
1091,794
1098,103
1049,89
957,544
835,969
696,962
546,393
386,996
223,9
69,715
−59,672
−153,873
−210,375
−237,1
−247,374
−249,336
−246,309
−237,445
−219,522
−193,397
−162,853
−131,929
−104,619
−83,029
−67,435
−57,6
−52,947
−52,47
−54,903
−59,142
−64,274
−69,28
−73,417
−76,049
−76,467
−74,603
−70,854
−65,613
−59,398
−52,85
−46,493
−40,94
−36,872
−34,518
−33,803
−34,548
−36,394
−38,967
−41,932
−44,872
−47,369
−49,201
−50,282
−50,595
−50,196
−49,093
−47,26
−44,721
−41,529
−37,736
−33,397
−28,562
−23,288
−17,672
−11,85
−5,958
−0,094
5,68
11,33
16,837
22,18
27,335
32,291
37,047
41,607
45,976
50,162
54,171
58,023
61,758
65,425
69,081
72,77
76,524
80,367
84,32
88,403
92,636
97,032
101,596
106,34
111,28
116,433
121,815
127,438
133,314
139,451
145,863
152,557
159,533
166,787
174,31
182,086
190,1
198,325
206,726
215,27
223,921
232,65
241,439
250,262
259,086
267,872
276,568
285,139
293,569
301,844
309,954
317,901
325,698
333,382
341,02
348,662
356,333
364,032
371,729
379,396
387,015
394,569
402,04
409,387
416,544
423,446
430,035
436,229
441,922
446,956
451,121
454,243
456,197
456,898
456,298
454,354
451,012
446,232
439,994
432,3
423,166
412,597
400,588
387,161
372,397
356,449
339,532
321,838
303,517
284,692
265,472
245,982
226,36
206,73
187,204
167,889
148,921
130,469
112,714
95,817
79,88
64,932
50,96
37,961
25,943
14,923
4,9
−4,15
−12,261
−19,458
−25,769
−31,237
−35,955
−40,063
−43,705
−47,013
−50,08
−52,957
−55,681
−58,289
−60,813
−63,276
−65,691
−68,05
−70,353
−72,614
−74,835
−77,008
−79,092
−81,016
−82,718
−84,15
−85,282
−86,105
−86,614
−86,806
−86,694
−86,303
−85,663
−84,808
−83,766
−82,553
−81,195
−79,72
−78,17
−76,593
−75,03
−73,511
−72,063
−70,706
−69,456
−68,327
−67,324
−66,44
−65,675
−65,022
−64,483
−64,058
−63,747
−63,544
−63,446
−63,446
−63,54
−63,722
−63,99
−64,339
−64,763
−65,258
−65,823
−66,453
−67,148
−67,901
−68,707
−69,56
−70,454
−71,384
−72,343
−73,324
−74,322
−75,331
−76,347
−77,364
−78,38
−79,389
−80,389
−81,377
−82,35
−83,307
−84,244
−85,16
−86,053
−86,922
−87,764
−88,579
−89,366
−90,122
−90,847
−91,54
−92,2
−92,828
−93,422
−93,983
−94,511
−95,008
−95,473
−95,909
−96,315
−96,694
−97,046
−97,374
−97,68
−97,964
−98,228
−98,475
−98,705
−98,921
−99,122
−99,312
−99,491
−99,661
−99,823
−99,978
−100,129
−100,277
−100,423
−100,57
−100,717
−100,869
−101,025
−101,187
−101,356
−101,534
−101,722
−101,92
−102,128
−102,348
−102,579
−102,821
−103,075
−103,339
−103,614
−103,898
−104,191
−104,492
−104,8
−105,114
−105,432
−105,753
−106,077
−106,4
−106,723
−107,043
−107,359
−107,669
−107,971
−108,263
−108,544
−108,813
−109,066
−109,302
−109,52
−109,717
−109,893
−110,046
−110,174
−110,278
−110,356
−110,407
−110,431
−110,428
−110,398
−110,342
−110,259
−110,15
−110,016
−109,858
−109,677
−109,474
−109,25
−109,008
−108,748
−108,473
−108,183
−107,882
−107,57
−107,251
−106,925
−106,594
−106,262
−105,929
−105,597
−105,27
−104,949
−104,635
−104,332
−104,041
−103,764
−103,502
−103,259
−103,034
−102,829
−102,647
−102,487
−102,351
−102,24
−102,155
−102,095
−102,063
−102,058
−102,08
−102,129
−102,205
−102,307
−102,435
−102,589
−102,767
−102,97
−103,196
−103,445
−103,717
−104,011
−104,327
−104,664
−105,021
−105,396
−105,788
−106,196
−106,617
−107,05
−107,492
−107,94
−108,393
−108,848
−109,302
−109,752
−110,195
−110,627
−111,046
−111,448
−111,829
−112,186
−112,515
−112,812
−113,073
−113,297
−113,478
−113,613
−113,697
−113,728
−113,699
−113,606
−113,443
−113,203
−112,88
−112,469
−111,965
−111,362
−110,658
−109,847
−108,93
−107,905
−106,772
−105,529
−104,174
−102,706
−101,123
−99,424
−97,606
−95,668
−93,61
−91,432
−89,139
−86,74
−84,24
−81,645
−78,962
−76,193
−73,345
−70,434
−67,475
−64,482
−61,481
−58,496
−55,567
−52,742
−50,061
−47,554
−45,244
−43,139
−41,251
−39,593
−38,167
−36,977
−36,022
−35,291
−34,778
−34,488
−34,4
−34,489
−34,708
−34,983
−35,262
−35,519
−35,738
−35,926
−36,091
−36,239
−36,391
−36,588
−36,858
−37,225
−37,695
−38,251
−38,901
−39,671
−40,615
−41,812
−43,301
−45,091
−47,161
−49,483
−52,037
−54,786
−57,664
−60,638
−63,736
−67,082
−70,934
−75,514
−80,956
−87,42
−94,955
−103,394
−112,478
−121,659
−130,13
−137,245
−142,393
−144,918
−144,519
−141,223
−135,26
−127,481
−119,064
−111,012
−104,532
−100,999
−101,41
−106,473
−116,629
−130,778
−146,552
−161,603
−172,865
−178,916
−180,81
−178,516
−170,942
−152,817
−114,62
−48,569
50,067
178,222
327,058
487,562
649,367
805,185
945,644
1056,508
1125,107
1139,242
1096,25
1003,996
873,218
718,565
550,712
378,369
213,746
67,96
−47,34
−126,615
−174,495
−199,952
−214,337
−224,374
−230,066
−229,255
−219,603
−201,947
−179,885
−157,274
−137,018
−120,06
−106,458
−95,952
−87,897
−81,917
−77,674
−74,58
−72,441
−71,21
−70,529
−70,122
−69,763
−69,005
−67,46
−65,073
−61,837
−57,836
−53,387
−48,753
−44,156
−39,976
−36,609
−34,182
−32,643
−31,804
−31,348
−31,041
−30,75
−30,33
−29,639
−28,605
−27,206
−25,455
−23,405
−21,092
−18,523
−15,697
−12,61
−9,284
−5,772
−2,166
1,446
5,012
8,516
11,98
15,451
18,96
22,529
26,186
29,945
33,81
37,775
41,795
45,807
49,78
53,712
57,63
61,578
65,579
69,638
73,759
77,945
82,199
86,531
90,937
95,415
99,975
104,641
109,453
114,468
119,723
125,241
131,04
137,127
143,519
150,236
157,283
164,649
172,327
180,305
188,57
197,108
205,889
214,866
223,992
233,221
242,513
251,843
261,174
270,463
279,666
288,73
297,62
306,323
314,828
323,122
331,215
339,124
346,895
354,599
362,287
369,978
377,681
385,379
393,06
400,724
408,362
415,965
423,502
430,923
438,166
445,158
451,788
457,911
463,347
467,872
471,303
473,502
474,35
473,762
471,652
467,937
462,547
455,425
446,532
435,847
423,375
409,158
393,292
375,932
357,277
337,58
317,07
295,952
274,423
252,663
230,859
209,201
187,884
167,102
147,048
127,912
109,853
92,989
77,39
63,079
50,038
38,208
27,529
17,937
9,366
1,759
−4,961
−10,878
−16,099
−20,753
−24,968
−28,879
−32,596
−36,201
−39,755
−43,298
−46,843
−50,386
−53,913
−57,4
−60,828
−64,188
−67,457
−70,608
−73,599
−76,365
−78,852
−81,015
−82,82
−84,25
−85,3
−85,968
−86,271
−86,238
−85,903
−85,304
−84,477
−83,446
−82,245
−80,911
−79,484
−78,018
−76,551
−75,118
−73,746
−72,457
−71,269
−70,196
−69,246
−68,416
−67,705
−67,112
−66,635
−66,277
−66,036
−65,908
−65,889
−65,97
−66,147
−66,414
−66,767
−67,201
−67,708
−68,284
−68,925
−69,627
−70,385
−71,194
−72,047
−72,935
−73,853
−74,793
−75,747
−76,71
−77,673
−78,632
−79,581
−80,516
−81,434
−82,33
−83,202
−84,047
−84,862
−85,648
−86,401
−87,122
−87,809
−88,462
−89,082
−89,667
−90,219
−90,738
−91,224
−91,679
−92,103
−92,5
−92,871
−93,217
−93,541
−93,847
−94,135
−94,41
−94,673
−94,928
−95,176
−95,42
−95,663
−95,907
−96,154
−96,404
−96,661
−96,923
−97,193
−97,471
−97,756
−98,05
−98,353
−98,664
−98,984
−99,313
−99,651
−99,998
−100,353
−100,717
−101,089
−101,468
−101,853
−102,243
−102,637
−103,034
−103,432
−103,829
−104,225
−104,617
−105,004
−105,385
−105,757
−106,12
−106,472
−106,811
−107,136
−107,445
−107,739
−108,015
−108,273
−108,512
−108,733
−108,934
−109,115
−109,275
−109,415
−109,532
−109,628
−109,702
−109,753
−109,781
−109,787
−109,771
−109,732
−109,672
−109,591
−109,489
−109,369
−109,231
−109,075
−108,903
−108,716
−108,515
−108,302
−108,078
−107,844
−107,603
−107,355
−107,102
−106,845
−106,586
−106,327
−106,068
−105,812
−105,559
−105,312
−105,073
−104,842
−104,622
−104,416
−104,225
−104,05
−103,894
−103,759
−103,647
−103,558
−103,495
−103,459
−103,452
−103,474
−103,527
−103,613
−103,732
−103,886
−104,074
−104,297
−104,557
−104,853
−105,185
−105,553
−105,958
−106,399
−106,875
−107,387
−107,932
−108,509
−109,117
−109,754
−110,418
−111,105
−111,812
−112,537
−113,275
−114,022
−114,775
−115,528
−116,278
−117,018
−117,744
−118,451
−119,132
−119,782
−120,394
−120,962
−121,48
−121,941
−122,34
−122,67
−122,923
−123,095
−123,178
−123,167
−123,055
−122,835
−122,502
−122,05
−121,474
−120,769
−119,932
−118,958
−117,845
−116,592
−115,195
−113,656
−111,973
−110,147
−108,18
−106,073
−103,831
−101,458
−98,96
−96,344
−93,62
−90,798
−87,89
−84,908
−81,866
−78,781
−75,668
−72,548
−69,438
−66,358
−63,329
−60,372
−57,508
−54,761
−52,148
−49,69
−47,405
−45,31
−43,424
−41,766
−40,346
−39,173
−38,252
−37,587
−37,18
−37,039
−37,164
−37,553
−38,202
−39,112
−40,278
−41,698
−43,359
−45,233
−47,289
−49,487
−51,793
−54,182
−56,633
−59,135
−61,664
−64,18
−66,64
−69,007
−71,242
−73,313
−75,174
−76,75
−78,039
−79,144
−80,246
−81,612
−83,461
−85,901
−89,067
−93,164
−98,252
−104,183
−110,578
−116,788
−122,266
−126,749
−129,92
−131,301
−130,572
−127,706
−123,077
−117,55
−111,953
−106,743
−102,595
−100,574
−101,609
−106,462
−115,471
−128,156
−144,027
−161,91
−178,645
−190,59
−194,179
−187,824
−174,123
−155,086
−129,064
−90,506
−28,81
64,658
189,936
341,788
509,773
680,047
842,348
983,557
1087,104
1140,866
1135,134
1071,052
961,888
821,872
665,461
501,687
335,346
174,6
29,545
−88,087
−171,331
−221,991
−247,354
−257,956
−260,304
−255,547
−243,058
−221,403
−191,999
−158,922
−126,179
−97,363
−74,7
−58,934
−50,057
−47,331
−49,536
−55,291
−63,328
−72,431
−81,279
−88,66
−93,536
−95,435
−94,566
−91,415
−86,564
−80,661
−74,39
−68,49
−63,738
−60,521
−58,807
−58,403
−58,957
−60,102
−61,517
−62,805
−63,558
−63,557
−62,736
−61,114
−58,795
−55,857
−52,351
−48,367
−44,001
−39,332
−34,431
−29,348
−24,131
−18,848
−13,577
−8,392
−3,351
1,515
6,19
10,666
14,947
19,038
22,955
26,72
30,353
33,869
37,288
40,626
43,908
47,16
50,411
53,686
57,012
60,411
63,904
67,513
71,253
75,141
79,191
83,419
87,839
92,47
97,328
102,427
107,781
113,407
119,32
125,54
132,078
138,934
146,106
153,586
161,358
169,405
177,698
186,198
194,867
203,672
212,586
221,59
230,654
239,742
248,81
257,813
266,719
275,512
284,176
292,7
301,083
309,338
317,502
325,629
333,751
341,877
349,988
358,051
366,036
373,921
381,688
389,306
396,718
403,859
410,666
417,073
422,998
428,327
432,895
436,529
439,087
440,477
440,645
439,554
437,168
433,448
428,365
421,915
414,117
404,984
394,52
382,736
369,661
355,391
340,089
323,93
307,063
289,607
271,651
253,292
234,648
215,835
196,96
178,129
159,442
141,04
123,099
105,783
89,24
73,562
58,765
44,869
31,9
19,884
8,855
−1,177
−10,237
−18,342
−25,508
−31,77
−37,178
−41,835
−45,891
−49,484
−52,74
−55,751
−58,564
−61,232
−63,807
−66,327
−68,823
−71,311
−73,786
−76,254
−78,732
−81,215
−83,686
−86,097
−88,369
−90,441
−92,265
−93,807
−95,056
−96,002
−96,637
−96,971
−97,027
−96,828
−96,407
−95,786
−94,978
−94,009
−92,908
−91,715
−90,48
−89,24
−88,024
−86,858
−85,762
−84,749
−83,832
−83,015
−82,293
−81,661
−81,119
−80,663
−80,299
−80,023
−79,834
−79,725
−79,693
−79,731
−79,838
−80,009
−80,241
−80,53
−80,873
−81,267
−81,711
−82,204
−82,741
−83,319
−83,931
−84,573
−85,24
−85,928
−86,63
−87,341
−88,058
−88,776
−89,491
−90,2
−90,9
−91,587
−92,26
−92,915
−93,55
−94,164
−94,754
−95,319
−95,857
−96,367
−96,847
−97,296
−97,714
−98,099
−98,452
−98,773
−99,061
−99,318
−99,543
−99,739
−99,906
−100,046
−100,16
−100,25
−100,318
−100,365
−100,395
−100,408
−100,408
−100,397
−100,376
−100,348
−100,316
−100,28
−100,244
−100,208
−100,176
−100,15
−100,13
−100,12
−100,121
−100,135
−100,164
−100,209
−100,272
−100,354
−100,457
−100,58
−100,725
−100,892
−101,081
−101,293
−101,527
−101,783
−102,061
−102,359
−102,679
−103,018
−103,375
−103,75
−104,14
−104,544
−104,96
−105,386
−105,821
−106,262
−106,706
−107,152
−107,598
−108,04
−108,475
−108,903
−109,318
−109,719
−110,104
−110,469
−110,811
−111,129
−111,42
−111,682
−111,913
−112,11
−112,273
−112,399
−112,486
−112,534
−112,54
−112,505
−112,426
−112,303
−112,137
−111,927
−111,673
−111,377
−111,039
−110,66
−110,243
−109,788
−109,298
−108,776
−108,224
−107,645
−107,044
−106,422
−105,784
−105,135
−104,477
−103,815
−103,154
−102,497
−101,849
−101,213
−100,594
−99,996
−99,424
−98,881
−98,373
−97,902
−97,473
−97,09
−96,757
−96,475
−96,248
−96,078
−95,967
−95,916
−95,926
−95,998
−96,131
−96,325
−96,578
−96,889
−97,255
−97,671
−98,136
−98,643
−99,188
−99,766
−100,371
−100,998
−101,639
−102,289
−102,939
−103,583
−104,213
−104,82
−105,394
−105,929
−106,413
−106,839
−107,196
−107,473
−107,663
−107,757
−107,746
−107,623
−107,379
−107,006
−106,498
−105,85
−105,057
−104,111
−103,008
−101,742
−100,311
−98,716
−96,955
−95,029
−92,94
−90,689
−88,283
−85,731
−83,039
−80,21
−77,252
−74,169
−70,976
−67,699
−64,359
−60,977
−57,576
−54,179
−50,815
−47,519
−44,312
−41,205
−38,21
−35,334
−32,597
−30,031
−27,661
−25,513
−23,598
−21,913
−20,459
−19,248
−18,274
−17,526
−16,988
−16,632
−16,466
−16,524
−16,835
−17,428
−18,309
−19,461
−20,87
−22,512
−24,367
−26,424
−28,649
−31,01
−33,492
−36,092
−38,822
−41,692
−44,653
−47,623
−50,518
−53,253
−55,796
−58,117
−60,175
−62,027
−63,772
−65,574
−67,719
−70,432
−73,86
−78,192
−83,524
−89,756
−96,735
−104,062
−111,093
−117,304
−122,137
−124,96
−125,44
−123,498
−119,262
−113,399
−106,854
−100,596
−95,886
−93,966
−95,785
−102,066
−112,97
−128,12
−146,025
−163,524
−177,23
−183,874
−182,094
−174,013
−160,412
−138,842
−103,553
−44,435
45,511
165,055
308,273
464,563
622,625
775,836
914,762
1026,728
1099,171
1118,31
1080,271
991,759
863,708
711,721
546,846
377,624
215,286
70,187
−45,897
−126,664
−175,185
−199,234
−209,913
−214,144
−212,965
−205,423
−189,616
−166,626
−140,353
−114,665
−92,683
−75,679
−63,448
−55,279
−50,367
−48,133
−47,827
−48,691
−50,324
−52,333
−54,416
−56,44
−58,036
−58,732
−58,482
−57,413
−55,623
−53,365
−50,87
−48,318
−46,088
−44,638
−44,101
−44,385
−45,331
−46,651
−48,098
−49,512
−50,642
−51,188
−51,001
−50,039
−48,321
−45,938
−42,942
−39,332
−35,168
−30,563
−25,634
−20,502
−15,258
−9,965
−4,696
0,473
5,49
10,318
14,951
19,401
23,677
27,781
31,712
35,465
39,045
42,475
45,788
49,017
52,194
55,347
58,51
61,717
64,999
68,377
71,866
75,475
79,219
83,112
87,175
91,429
95,894
100,586
105,523
110,716
116,18
121,931
127,981
134,344
141,028
148,032
155,354
162,986
170,914
179,12
187,573
196,232
205,06
214,023
223,091
232,239
241,434
250,633
259,797
268,886
277,87
286,734
295,467
304,056
312,508
320,842
329,092
337,309
345,517
353,715
361,891
370,014
378,062
386,024
393,871
401,556
409,028
416,216
423,046
429,451
435,315
440,492
444,831
448,16
450,357
451,341
451,04
449,406
446,396
441,957
436,07
428,745
419,98
409,794
398,217
385,276
371,073
355,763
339,504
322,475
304,823
286,662
268,126
249,34
230,424
211,513
192,727
174,175
156,009
138,37
121,386
105,192
89,855
75,388
61,813
49,127
37,338
26,46
16,48
7,372
−0,88
−8,31
−14,964
−20,898
−26,223
−31,046
−35,459
−39,566
−43,426
−47,075
−50,555
−53,895
−57,111
−60,225
−63,243
−66,158
−68,982
−71,715
−74,341
−76,838
−79,146
−81,218
−83,021
−84,523
−85,708
−86,575
−87,118
−87,348
−87,288
−86,961
−86,392
−85,612
−84,64
−83,5
−82,225
−80,851
−79,424
−77,984
−76,559
−75,176
−73,857
−72,619
−71,477
−70,437
−69,498
−68,658
−67,919
−67,279
−66,741
−66,306
−65,968
−65,724
−65,569
−65,499
−65,508
−65,595
−65,756
−65,985
−66,282
−66,642
−67,067
−67,553
−68,096
−68,693
−69,338
−70,027
−70,755
−71,515
−72,304
−73,115
−73,945
−74,788
−75,642
−76,502
−77,365
−78,228
−79,087
−79,94
−80,784
−81,618
−82,438
−83,245
−84,035
−84,809
−85,564
−86,301
−87,018
−87,715
−88,39
−89,043
−89,674
−90,282
−90,867
−91,429
−91,967
−92,483
−92,975
−93,446
−93,894
−94,321
−94,727
−95,113
−95,479
−95,826
−96,154
−96,464
−96,758
−97,036
−97,299
−97,549
−97,787
−98,014
−98,232
−98,441
−98,643
−98,838
−99,027
−99,212
−99,393
−99,571
−99,746
−99,92
−100,093
−100,265
−100,438
−100,61
−100,784
−100,959
−101,135
−101,312
−101,492
−101,675
−101,861
−102,051
−102,245
−102,443
−102,645
−102,852
−103,064
−103,278
−103,496
−103,716
−103,937
−104,16
−104,382
−104,604
−104,824
−105,042
−105,258
−105,47
−105,678
−105,882
−106,081
−106,274
−106,462
−106,644
−106,821
−106,993
−107,159
−107,32
−107,476
−107,627
−107,773
−107,913
−108,046
−108,173
−108,293
−108,405
−108,51
−108,606
−108,695
−108,775
−108,847
−108,911
−108,967
−109,015
−109,055
−109,086
−109,11
−109,125
−109,133
−109,132
−109,125
−109,11
−109,088
−109,058
−109,022
−108,978
−108,927
−108,869
−108,803
−108,729
−108,649
−108,561
−108,469
−108,371
−108,27
−108,166
−108,061
−107,956
−107,853
−107,752
−107,657
−107,568
−107,487
−107,416
−107,357
−107,313
−107,284
−107,273
−107,282
−107,312
−107,366
−107,443
−107,546
−107,675
−107,832
−108,018
−108,232
−108,476
−108,75
−109,054
−109,386
−109,746
−110,133
−110,544
−110,977
−111,429
−111,897
−112,377
−112,865
−113,357
−113,847
−114,331
−114,803
−115,256
−115,684
−116,079
−116,434
−116,741
−116,994
−117,183
−117,301
−117,34
−117,292
−117,15
−116,906
−116,552
−116,08
−115,485
−114,758
−113,894
−112,888
−111,735
−110,431
−108,974
−107,361
−105,591
−103,665
−101,582
−99,345
−96,955
−94,417
−91,737
−88,92
−85,976
−82,913
−79,747
−76,489
−73,155
−69,761
−66,326
−62,869
−59,413
−55,978
−52,586
−49,26
−46,025
−42,905
−39,922
−37,101
−34,461
−32,024
−29,809
−27,835
−26,119
−24,675
−23,511
−22,635
−22,051
−21,763
−21,778
−22,099
−22,721
−23,645
−24,869
−26,387
−28,198
−30,288
−32,63
−35,193
−37,938
−40,828
−43,836
−46,935
−50,1
−53,302
−56,492
−59,621
−62,656
−65,547
−68,253
−70,727
−72,88
−74,714
−76,329
−77,867
−79,567
−81,64
−84,192
−87,411
−91,552
−96,62
−102,475
−108,787
−114,884
−120,287
−124,722
−127,663
−128,585
−127,348
−123,975
−118,947
−113,328
−107,812
−103,012
−100,008
−99,733
−102,958
−110,339
−121,724
−136,518
−153,576
−170,17
−183,225
−189,85
−189,104
−183,52
−174,399
−159,597
−132,115
−80,043
4,179
119,891
259,345
409,442
560,857
709,036
848,621
970,93
1059,729
1097,451
1076,897
1003,513
894,718
770,551
640,29
504,392
360,254
208,77
62,749
−61,022
−151,607
−206,759
−235,481
−249,352
−254,808
−253,382
−242,586
−221,265
−191,819
−158,633
−126,714
−99,017
−76,934
−61,105
−51,191
−46,822
−47,256
−51,029
−56,903
−63,946
−71,018
−77,273
−82,045
−84,592
−84,824
−83,168
−80,033
−75,896
−71,333
−66,751
−62,616
−59,503
−57,57
−56,693
−56,675
−57,173
−57,859
−58,498
−58,818
−58,518
−57,468
−55,641
−53,067
−49,861
−46,113
−41,886
−37,265
−32,343
−27,197
−21,899
−16,514
−11,096
−5,706
−0,413
4,736
9,706
14,479
19,05
23,422
27,603
31,609
35,462
39,18
42,781
46,281
49,7
53,06
56,386
59,704
63,038
66,413
69,852
73,375
77,005
80,758
84,651
88,699
92,918
97,323
101,934
106,767
111,836
117,157
122,745
128,618
134,796
141,292
148,11
155,248
162,697
170,445
178,472
186,752
195,243
203,907
212,706
221,609
230,597
239,642
248,71
257,759
266,74
275,617
284,373
292,994
301,466
309,795
317,99
326,089
334,161
342,257
350,401
358,598
366,819
375,037
383,236
391,396
399,496
407,494
415,32
422,902
430,179
437,06
443,429
449,126
453,936
457,677
460,22
461,464
461,351
459,829
456,84
452,337
446,297
438,719
429,613
419
406,886
393,306
378,356
362,192
345,034
327,084
308,496
289,416
269,972
250,295
230,527
210,81
191,26
172,001
153,181
134,94
117,436
100,812
85,144
70,461
56,747
43,981
32,163
21,289
11,342
2,292
−5,896
−13,268
−19,864
−25,746
−31,024
−35,802
−40,191
−44,304
−48,208
−51,946
−55,552
−59,04
−62,425
−65,72
−68,924
−72,027
−75,029
−77,918
−80,683
−83,3
−85,709
−87,863
−89,726
−91,258
−92,444
−93,279
−93,761
−93,901
−93,726
−93,26
−92,531
−91,575
−90,414
−89,079
−87,604
−86,025
−84,39
−82,739
−81,104
−79,514
−77,991
−76,553
−75,216
−73,991
−72,874
−71,869
−70,976
−70,195
−69,529
−68,978
−68,539
−68,207
−67,978
−67,848
−67,812
−67,866
−68,008
−68,232
−68,534
−68,911
−69,362
−69,882
−70,466
−71,108
−71,802
−72,541
−73,318
−74,127
−74,962
−75,814
−76,679
−77,551
−78,426
−79,298
−80,164
−81,019
−81,86
−82,684
−83,489
−84,271
−85,03
−85,763
−86,471
−87,152
−87,806
−88,434
−89,036
−89,611
−90,161
−90,686
−91,188
−91,668
−92,127
−92,567
−92,99
−93,397
−93,792
−94,174
−94,548
−94,914
−95,274
−95,632
−95,987
−96,342
−96,697
−97,054
−97,414
−97,777
−98,144
−98,515
−98,89
−99,27
−99,653
−100,039
−100,429
−100,819
−101,21
−101,6
−101,988
−102,37
−102,747
−103,116
−103,475
−103,823
−104,157
−104,477
−104,78
−105,064
−105,328
−105,572
−105,792
−105,989
−106,161
−106,308
−106,428
−106,523
−106,591
−106,633
−106,649
−106,639
−106,604
−106,546
−106,464
−106,359
−106,234
−106,09
−105,928
−105,75
−105,559
−105,356
−105,144
−104,926
−104,703
−104,478
−104,254
−104,032
−103,814
−103,604
−103,401
−103,209
−103,028
−102,86
−102,705
−102,566
−102,441
−102,331
−102,236
−102,156
−102,09
−102,036
−101,995
−101,964
−101,943
−101,929
−101,921
−101,917
−101,916
−101,915
−101,912
−101,906
−101,893
−101,872
−101,84
−101,796
−101,738
−101,664
−101,574
−101,465
−101,337
−101,189
−101,022
−100,834
−100,627
−100,4
−100,155
−99,892
−99,614
−99,322
−99,019
−98,708
−98,39
−98,07
−97,752
−97,437
−97,131
−96,836
−96,557
−96,298
−96,062
−95,853
−95,675
−95,532
−95,426
−95,362
−95,341
−95,366
−95,439
−95,56
−95,73
−95,95
−96,218
−96,533
−96,894
−97,299
−97,744
−98,226
−98,742
−99,286
−99,853
−100,438
−101,033
−101,632
−102,226
−102,808
−103,369
−103,9
−104,392
−104,835
−105,221
−105,54
−105,782
−105,937
−105,996
−105,948
−105,785
−105,497
−105,076
−104,514
−103,805
−102,943
−101,922
−100,739
−99,392
−97,88
−96,199
−94,35
−92,332
−90,15
−87,808
−85,31
−82,662
−79,872
−76,952
−73,918
−70,787
−67,577
−64,305
−60,991
−57,655
−54,321
−51,02
−47,777
−44,617
−41,563
−38,64
−35,872
−33,289
−30,915
−28,768
−26,864
−25,21
−23,818
−22,7
−21,862
−21,314
−21,046
−21,045
−21,302
−21,804
−22,556
−23,582
−24,89
−26,474
−28,32
−30,39
−32,671
−35,217
−37,993
−40,88
−43,769
−46,509
−49,076
−51,632
−54,219
−56,705
−59,094
−61,531
−64,232
−67,633
−71,908
−76,741
−81,967
−87,644
−93,695
−99,912
−105,924
−110,931
−114,327
−116,211
−116,668
−115,615
−113,184
−109,574
−105,043
−100,355
−96,364
−93,323
−91,46
−91,147
−92,371
−95,135
−99,806
−106,42
−114,67
−124,699
−136,51
−149,642
−164,241
−179,299
−191,483
−197,841
−195,862
−184,961
−168,746
−149,222
−123,627
−85,046
−22,006
73,658
200,662
351,605
514,575
677,621
833,491
972,812
1081,876
1146,106
1151,389
1095,427
990,837
856,202
711,62
566,698
418,541
264,577
105,46
−47,64
−173,79
−259,549
−300,671
−304,141
−287,592
−263,274
−237,192
−211,014
−181,162
−147,749
−114,282
−84,074
−61,004
−46,57
−39,943
−40,089
−45,369
−53,871
−64,033
−74,417
−83,765
−91,313
−96,509
−98,846
−98,324
−95,386
−90,589
−84,607
−78,103
−71,519
−65,302
−59,956
−55,643
−52,301
−49,788
−47,799
−46,032
−44,284
−42,327
−39,957
−37,157
−33,982
−30,52
−26,912
−23,249
−19,6
−16,056
−12,681
−9,494
−6,479
−3,584
−0,775
1,934
4,533
7,023
9,441
11,867
14,364
16,974
19,735
22,674
25,827
29,23
32,884
36,764
40,829
45,018
49,299
53,67
58,121
62,649
67,241
71,872
76,532
81,232
85,976
90,772
95,626
100,537
105,527
110,63
115,888
121,347
127,042
132,99
139,21
145,719
152,535
159,675
167,141
174,919
182,994
191,351
199,971
208,833
217,901
227,125
236,456
245,851
255,278
264,709
274,109
283,435
292,637
301,668
310,499
319,117
327,508
335,659
343,57
351,256
358,758
366,132
373,406
380,585
387,647
394,562
401,314
407,896
414,298
420,499
426,455
432,115
437,437
442,364
446,81
450,65
453,711
455,819
456,849
456,72
455,381
452,79
448,889
443,626
436,968
428,897
419,408
408,484
396,096
382,255
367,031
350,558
333,033
314,65
295,559
275,889
255,758
235,3
214,668
194,005
173,44
153,112
133,181
113,851
95,34
77,811
61,367
46,046
31,838
18,741
6,77
−4,072
−13,797
−22,438
−30,043
−36,649
−42,299
−47,065
−51,066
−54,473
−57,464
−60,17
−62,684
−65,062
−67,34
−69,562
−71,766
−73,97
−76,177
−78,383
−80,586
−82,798
−85,022
−87,236
−89,387
−91,393
−93,178
−94,699
−95,93
−96,862
−97,491
−97,816
−97,848
−97,618
−97,16
−96,506
−95,681
−94,699
−93,583
−92,365
−91,089
−89,804
−88,55
−87,355
−86,242
−85,229
−84,328
−83,551
−82,898
−82,36
−81,928
−81,598
−81,366
−81,233
−81,195
−81,245
−81,373
−81,573
−81,836
−82,157
−82,529
−82,945
−83,4
−83,888
−84,405
−84,95
−85,52
−86,109
−86,713
−87,327
−87,944
−88,563
−89,176
−89,781
−90,372
−90,948
−91,506
−92,043
−92,56
−93,055
−93,528
−93,978
−94,407
−94,816
−95,204
−95,574
−95,928
−96,266
−96,592
−96,906
−97,21
−97,506
−97,796
−98,082
−98,366
−98,649
−98,934
−99,222
−99,514
−99,813
−100,12
−100,437
−100,763
−101,102
−101,453
−101,817
−102,196
−102,588
−102,995
−103,417
−103,851
−104,299
−104,759
−105,23
−105,712
−106,201
−106,699
−107,202
−107,71
−108,221
−108,733
−109,246
−109,757
−110,266
−110,771
−111,27
−111,763
−112,247
−112,723
−113,188
−113,642
−114,083
−114,511
−114,924
−115,322
−115,704
−116,069
−116,417
−116,748
−117,06
−117,354
−117,629
−117,885
−118,123
−118,341
−118,541
−118,722
−118,884
−119,028
−119,153
−119,261
−119,35
−119,422
−119,476
−119,512
−119,53
−119,531
−119,515
−119,481
−119,43
−119,361
−119,275
−119,172
−119,053
−118,916
−118,764
−118,595
−118,411
−118,211
−117,997
−117,768
−117,525
−117,269
−117,001
−116,721
−116,43
−116,13
−115,821
−115,505
−115,183
−114,856
−114,526
−114,193
−113,861
−113,53
−113,202
−112,88
−112,564
−112,258
−111,964
−111,682
−111,417
−111,169
−110,941
−110,735
−110,552
−110,394
−110,264
−110,162
−110,091
−110,052
−110,045
−110,073
−110,135
−110,231
−110,363
−110,529
−110,729
−110,963
−111,228
−111,523
−111,847
−112,195
−112,567
−112,96
−113,368
−113,79
−114,221
−114,657
−115,093
−115,524
−115,944
−116,348
−116,729
−117,082
−117,4
−117,677
−117,907
−118,082
−118,196
−118,242
−118,212
−118,101
−117,9
−117,603
−117,204
−116,696
−116,075
−115,334
−114,47
−113,478
−112,355
−111,099
−109,707
−108,179
−106,513
−104,709
−102,769
−100,695
−98,49
−96,161
−93,712
−91,151
−88,487
−85,732
−82,899
−80,001
−77,056
−74,081
−71,094
−68,117
−65,168
−62,268
−59,437
−56,692
−54,053
−51,538
−49,165
−46,952
−44,918
−43,08
−41,45
−40,04
−38,851
−37,885
−37,143
−36,624
−36,334
−36,277
−36,458
−36,886
−37,57
−38,516
−39,727
−41,19
−42,871
−44,737
−46,757
−48,908
−51,191
−53,593
−56,085
−58,633
−61,184
−63,688
−66,115
−68,393
−70,403
−72,093
−73,491
−74,738
−76,122
−77,879
−80,132
−83,023
−86,753
−91,386
−96,78
−102,527
−107,911
−112,318
−115,49
−117,234
−117,241
−115,378
−111,836
−107,198
−102,561
−98,966
−96,864
−96,648
−99,103
−104,872
−114,208
−127,12
−142,943
−160,793
−180,526
−200,372
−216,147
−224,467
−222,414
−210,848
−195,476
−177,515
−152,984
−112,039
−40,208
68,071
208,211
368,258
532,012
688,589
830,796
951,052
1038,964
1081,644
1072,537
1014,826
920,943
807,854
684,199
549,875
403,958
247,135
90,998
−44,061
−144,998
−206,877
−235,488
−246,492
−249,677
−248,582
−243,19
−229,346
−206,811
−179,355
−150,821
−125,113
−104,481
−89,249
−79,267
−74,181
−73,188
−75,086
−78,726
−83,153
−87,309
−90,358
−91,604
−90,307
−86,354
−80,173
−72,268
−63,271
−53,92
−44,848
−36,725
−30,241
−25,66
−22,937
−21,915
−22,274
−23,679
−25,826
−28,334
−30,825
−33,082
−34,991
−36,474
−37,491
−37,977
−37,852
−37,101
−35,748
−33,812
−31,314
−28,274
−24,725
−20,728
−16,373
−11,739
−6,883
−1,853
3,307
8,535
13,748
18,879
23,878
28,712
33,371
37,843
42,126
46,229
50,178
54,009
57,76
61,468
65,154
68,846
72,572
76,369
80,285
84,356
88,614
93,084
97,787
102,746
107,979
113,501
119,313
125,42
131,823
138,524
145,532
152,847
160,473
168,405
176,629
185,129
193,885
202,871
212,055
221,4
230,859
240,388
249,945
259,492
268,993
278,415
287,723
296,879
305,844
314,586
323,089
331,34
339,336
347,075
354,562
361,809
368,849
375,706
382,391
388,904
395,224
401,319
407,153
412,687
417,88
422,671
426,987
430,744
433,859
436,254
437,849
438,549
438,24
436,811
434,181
430,284
425,083
418,568
410,744
401,628
391,265
379,723
367,083
353,437
338,88
323,486
307,352
290,598
273,366
255,816
238,097
220,35
202,719
185,323
168,261
151,626
135,474
119,843
104,78
90,319
76,504
63,406
51,069
39,511
28,743
18,736
9,455
0,856
−7,134
−14,578
−21,52
−27,997
−34,025
−39,605
−44,761
−49,512
−53,885
−57,936
−61,708
−65,229
−68,534
−71,63
−74,512
−77,166
−79,552
−81,632
−83,39
−84,82
−85,929
−86,737
−87,254
−87,492
−87,472
−87,196
−86,673
−85,915
−84,929
−83,732
−82,354
−80,828
−79,202
−77,522
−75,823
−74,134
−72,479
−70,873
−69,333
−67,87
−66,489
−65,198
−64,004
−62,914
−61,938
−61,082
−60,346
−59,729
−59,227
−58,833
−58,543
−58,352
−58,255
−58,249
−58,33
−58,496
−58,746
−59,077
−59,487
−59,972
−60,524
−61,14
−61,812
−62,534
−63,301
−64,104
−64,939
−65,799
−66,68
−67,576
−68,483
−69,397
−70,312
−71,224
−72,131
−73,029
−73,914
−74,784
−75,637
−76,469
−77,281
−78,07
−78,834
−79,573
−80,284
−80,968
−81,623
−82,249
−82,844
−83,409
−83,943
−84,446
−84,919
−85,362
−85,776
−86,162
−86,521
−86,855
−87,164
−87,451
−87,716
−87,962
−88,189
−88,399
−88,594
−88,775
−88,944
−89,102
−89,252
−89,394
−89,53
−89,663
−89,793
−89,922
−90,051
−90,183
−90,319
−90,461
−90,609
−90,766
−90,932
−91,109
−91,297
−91,497
−91,71
−91,937
−92,177
−92,43
−92,698
−92,979
−93,273
−93,58
−93,9
−94,232
−94,575
−94,928
−95,29
−95,66
−96,037
−96,419
−96,805
−97,195
−97,585
−97,976
−98,366
−98,753
−99,135
−99,512
−99,882
−100,244
−100,596
−100,937
−101,267
−101,583
−101,887
−102,176
−102,451
−102,711
−102,955
−103,183
−103,395
−103,591
−103,771
−103,934
−104,08
−104,211
−104,326
−104,426
−104,511
−104,582
−104,639
−104,684
−104,716
−104,737
−104,747
−104,747
−104,737
−104,718
−104,692
−104,658
−104,617
−104,571
−104,518
−104,461
−104,4
−104,334
−104,264
−104,191
−104,115
−104,036
−103,955
−103,873
−103,789
−103,706
−103,623
−103,542
−103,463
−103,386
−103,313
−103,245
−103,181
−103,123
−103,072
−103,028
−102,993
−102,966
−102,949
−102,943
−102,949
−102,967
−102,998
−103,043
−103,102
−103,177
−103,268
−103,375
−103,5
−103,642
−103,803
−103,982
−104,179
−104,393
−104,624
−104,87
−105,131
−105,404
−105,687
−105,979
−106,276
−106,575
−106,875
−107,17
−107,457
−107,733
−107,992
−108,231
−108,443
−108,624
−108,768
−108,87
−108,925
−108,927
−108,87
−108,749
−108,556
−108,287
−107,934
−107,492
−106,954
−106,316
−105,571
−104,714
−103,742
−102,65
−101,436
−100,096
−98,63
−97,035
−95,311
−93,459
−91,479
−89,373
−87,146
−84,801
−82,346
−79,79
−77,143
−74,416
−71,62
−68,77
−65,881
−62,969
−60,051
−57,145
−54,269
−51,443
−48,689
−46,027
−43,479
−41,065
−38,803
−36,712
−34,809
−33,112
−31,636
−30,392
−29,388
−28,631
−28,128
−27,888
−27,916
−28,213
−28,777
−29,605
−30,695
−32,042
−33,634
−35,448
−37,457
−39,629
−41,927
−44,321
−46,782
−49,284
−51,805
−54,315
−56,777
−59,16
−61,431
−63,548
−65,493
−67,233
−68,716
−69,991
−71,166
−72,404
−73,967
−76,084
−78,886
−82,572
−87,368
−93,255
−100,068
−107,445
−114,679
−121,21
−126,655
−130,417
−131,916
−130,968
−127,586
−122,212
−115,915
−109,519
−103,822
−100,106
−99,476
−102,794
−110,767
−123,253
−139,538
−158,167
−175,938
−189,292
−194,85
−191,016
−179,772
−162,183
−136,308
−96,974
−34,566
58,095
180,392
326,995
487,471
648,74
801,369
933,773
1031,87
1084,999
1083,847
1028,997
933,135
811,275
679,513
546,067
409,16
268,027
123,951
−13,904
−128,874
−210,45
−254,932
−267,642
−262,37
−248,489
−230,935
−211,324
−186,906
−158,105
−127,926
−98,968
−74,75
−57,086
−45,823
−40,691
−40,737
−44,47
−50,725
−58,494
−66,544
−73,884
−79,651
−82,966
−83,615
−81,958
−78,44
−73,585
−68,022
−62,273
−56,929
−52,676
−49,783
−48,198
−47,719
−48,009
−48,745
−49,672
−50,515
−50,943
−50,747
−49,844
−48,231
−45,996
−43,231
−39,993
−36,345
−32,361
−28,104
−23,632
−19,016
−14,296
−9,507
−4,692
0,139
4,951
9,685
14,308
18,799
23,153
27,384
31,504
35,506
39,396
43,195
46,922
50,608
54,274
57,927
61,575
65,225
68,897
72,626
76,441
80,363
84,412
88,603
92,955
97,498
102,249
107,22
112,422
117,859
123,546
129,502
135,745
142,291
149,149
156,315
163,782
171,541
179,574
187,859
196,362
205,036
213,842
222,749
231,727
240,755
249,803
258,833
267,807
276,688
285,45
294,078
302,563
310,895
319,085
327,157
335,148
343,117
351,103
359,115
367,154
375,198
383,222
391,213
399,14
406,954
414,592
421,98
429,033
435,672
441,796
447,261
451,908
455,56
458,064
459,313
459,22
457,713
454,739
450,248
444,223
436,688
427,691
417,279
405,514
392,451
378,165
362,802
346,534
329,545
312,018
294,101
275,943
257,702
239,537
221,586
203,961
186,732
169,947
153,68
138,002
122,99
108,722
95,212
82,446
70,411
59,086
48,446
38,461
29,066
20,168
11,713
3,662
−4,001
−11,27
−18,172
−24,741
−31,016
−37,043
−42,84
−48,411
−53,766
−58,915
−63,852
−68,565
−73,01
−77,121
−80,862
−84,217
−87,18
−89,764
−91,971
−93,796
−95,243
−96,318
−97,031
−97,398
−97,432
−97,142
−96,554
−95,698
−94,619
−93,376
−92,015
−90,569
−89,069
−87,539
−86,001
−84,478
−82,986
−81,534
−80,135
−78,8
−77,542
−76,375
−75,308
−74,345
−73,488
−72,734
−72,082
−71,532
−71,082
−70,732
−70,48
−70,326
−70,268
−70,309
−70,448
−70,682
−71,007
−71,418
−71,908
−72,472
−73,104
−73,794
−74,537
−75,326
−76,153
−77,012
−77,897
−78,801
−79,72
−80,646
−81,574
−82,5
−83,418
−84,324
−85,216
−86,088
−86,939
−87,766
−88,567
−89,34
−90,084
−90,797
−91,479
−92,13
−92,748
−93,334
−93,889
−94,411
−94,904
−95,366
−95,8
−96,208
−96,589
−96,948
−97,284
−97,601
−97,901
−98,184
−98,453
−98,71
−98,957
−99,194
−99,422
−99,645
−99,861
−100,073
−100,281
−100,485
−100,687
−100,886
−101,083
−101,279
−101,473
−101,664
−101,853
−102,04
−102,224
−102,404
−102,58
−102,752
−102,92
−103,082
−103,239
−103,391
−103,536
−103,676
−103,809
−103,935
−104,054
−104,166
−104,271
−104,367
−104,456
−104,538
−104,611
−104,678
−104,737
−104,791
−104,838
−104,879
−104,915
−104,947
−104,975
−104,999
−105,022
−105,042
−105,062
−105,082
−105,103
−105,126
−105,152
−105,181
−105,213
−105,249
−105,289
−105,332
−105,38
−105,431
−105,486
−105,545
−105,607
−105,673
−105,741
−105,811
−105,883
−105,957
−106,03
−106,103
−106,174
−106,244
−106,31
−106,373
−106,43
−106,482
−106,528
−106,566
−106,596
−106,616
−106,627
−106,626
−106,614
−106,59
−106,554
−106,505
−106,444
−106,371
−106,287
−106,191
−106,085
−105,97
−105,846
−105,715
−105,577
−105,434
−105,286
−105,136
−104,985
−104,835
−104,687
−104,542
−104,404
−104,273
−104,15
−104,039
−103,94
−103,854
−103,784
−103,73
−103,694
−103,678
−103,683
−103,709
−103,757
−103,827
−103,921
−104,036
−104,173
−104,33
−104,507
−104,702
−104,912
−105,136
−105,371
−105,615
−105,865
−106,117
−106,368
−106,613
−106,849
−107,071
−107,273
−107,451
−107,6
−107,715
−107,789
−107,817
−107,794
−107,714
−107,57
−107,358
−107,071
−106,703
−106,247
−105,698
−105,051
−104,301
−103,442
−102,472
−101,385
−100,18
−98,854
−97,406
−95,833
−94,136
−92,313
−90,367
−88,299
−86,111
−83,808
−81,395
−78,878
−76,268
−73,575
−70,811
−67,987
−65,117
−62,215
−59,297
−56,381
−53,483
−50,621
−47,815
−45,085
−42,454
−39,941
−37,568
−35,355
−33,316
−31,469
−29,829
−28,409
−27,221
−26,276
−25,58
−25,14
−24,968
−25,068
−25,443
−26,095
−27,019
−28,21
−29,658
−31,346
−33,251
−35,347
−37,605
−39,993
−42,472
−45,008
−47,564
−50,11
−52,623
−55,07
−57,413
−59,616
−61,628
−63,421
−65,001
−66,359
−67,494
−68,479
−69,427
−70,534
−72,117
−74,425
−77,623
−81,906
−87,363
−93,909
−101,368
−109,271
−116,875
−123,523
−128,574
−131,401
−131,702
−129,453
−124,829
−118,529
−111,566
−105,035
−100,316
−98,615
−100,798
−107,465
−118,612
−133,789
−151,393
−168,036
−180,174
−184,483
−179,677
−168,108
−150,694
−125,053
−85,624
−22,549
70,745
192,78
337,943
496,227
656,41
811,113
949,416
1056,781
1120,361
1127,736
1077,047
977,942
843,592
690,631
530,328
369,387
215,214
73,83
−45,859
−137,552
−200,898
−238,606
−258,384
−266,184
−264,216
−253,792
−234,228
−206,704
−174,846
−142,256
−112,313
−86,972
−66,843
−52,024
−42,284
−37,38
−36,617
−38,98
−43,76
−50,207
−57,495
−64,937
−71,61
−76,55
−79,456
−80,419
−79,556
−77,211
−73,78
−69,62
−65,358
−61,711
−58,978
−57,166
−56,156
−55,647
−55,368
−55,134
−54,654
−53,605
−51,838
−49,318
−46,093
−42,304
−38,06
−33,425
−28,491
−23,357
−18,098
−12,789
−7,491
−2,242
2,906
7,909
12,738
17,369
21,792
26,012
30,039
33,889
37,585
41,146
44,587
47,926
51,18
54,372
57,529
60,677
63,842
67,05
70,324
73,689
77,167
80,777
84,538
88,466
92,575
96,883
101,409
106,171
111,188
116,475
122,043
127,906
134,076
140,566
147,388
154,547
162,036
169,846
177,965
186,374
195,048
203,953
213,042
222,274
231,613
241,024
250,48
259,942
269,364
278,702
287,913
296,965
305,837
314,514
322,98
331,239
339,308
347,218
355,015
362,72
370,329
377,828
385,19
392,4
399,45
406,315
412,959
419,336
425,391
431,068
436,3
440,981
444,974
448,131
450,303
451,373
451,268
449,925
447,294
443,322
437,96
431,184
422,987
413,37
402,337
389,898
376,099
361,045
344,891
327,809
309,964
291,508
272,576
253,303
233,828
214,302
194,867
175,662
156,841
138,548
120,939
104,167
88,335
73,499
59,671
46,847
35,022
24,191
14,336
5,424
−2,581
−9,738
−16,102
−21,747
−26,786
−31,324
−35,472
−39,346
−43,025
−46,56
−49,992
−53,344
−56,632
−59,874
−63,071
−66,216
−69,307
−72,331
−75,271
−78,099
−80,754
−83,19
−85,367
−87,247
−88,812
−90,056
−90,974
−91,576
−91,885
−91,919
−91,706
−91,275
−90,647
−89,849
−88,914
−87,876
−86,78
−85,665
−84,559
−83,491
−82,478
−81,538
−80,683
−79,922
−79,252
−78,671
−78,18
−77,779
−77,468
−77,247
−77,113
−77,061
−77,085
−77,18
−77,343
−77,57
−77,856
−78,199
−78,594
−79,039
−79,534
−80,075
−80,66
−81,283
−81,94
−82,625
−83,336
−84,066
−84,81
−85,564
−86,324
−87,085
−87,847
−88,604
−89,355
−90,096
−90,826
−91,543
−92,244
−92,928
−93,594
−94,24
−94,865
−95,468
−96,049
−96,607
−97,143
−97,654
−98,142
−98,606
−99,046
−99,464
−99,86
−100,234
−100,587
−100,92
−101,235
−101,533
−101,815
−102,082
−102,336
−102,579
−102,81
−103,031
−103,243
−103,447
−103,642
−103,83
−104,011
−104,187
−104,356
−104,521
−104,682
−104,839
−104,994
−105,147
−105,299
−105,45
−105,6
−105,751
−105,902
−106,055
−106,208
−106,362
−106,518
−106,675
−106,833
−106,992
−107,15
−107,309
−107,466
−107,622
−107,776
−107,927
−108,076
−108,222
−108,365
−108,505
−108,643
−108,777
−108,909
−109,038
−109,164
−109,287
−109,407
−109,523
−109,637
−109,747
−109,853
−109,956
−110,055
−110,15
−110,241
−110,327
−110,409
−110,487
−110,559
−110,627
−110,69
−110,748
−110,803
−110,854
−110,901
−110,946
−110,987
−111,027
−111,064
−111,098
−111,13
−111,159
−111,185
−111,207
−111,226
−111,24
−111,251
−111,258
−111,261
−111,261
−111,256
−111,249
−111,238
−111,225
−111,21
−111,195
−111,178
−111,163
−111,149
−111,139
−111,132
−111,131
−111,136
−111,148
−111,168
−111,198
−111,238
−111,287
−111,348
−111,421
−111,507
−111,607
−111,723
−111,854
−112,004
−112,172
−112,361
−112,57
−112,801
−113,053
−113,325
−113,618
−113,931
−114,261
−114,607
−114,967
−115,338
−115,719
−116,105
−116,494
−116,882
−117,264
−117,635
−117,992
−118,328
−118,64
−118,922
−119,169
−119,376
−119,538
−119,651
−119,71
−119,708
−119,64
−119,5
−119,281
−118,977
−118,58
−118,082
−117,478
−116,762
−115,931
−114,98
−113,907
−112,711
−111,393
−109,954
−108,396
−106,718
−104,921
−103,005
−100,974
−98,831
−96,577
−94,218
−91,758
−89,207
−86,58
−83,889
−81,146
−78,359
−75,536
−72,69
−69,841
−67,009
−64,215
−61,484
−58,844
−56,33
−53,989
−51,865
−49,988
−48,376
−47,036
−45,975
−45,203
−44,723
−44,536
−44,624
−44,96
−45,529
−46,32
−47,315
−48,482
−49,771
−51,102
−52,408
−53,643
−54,771
−55,773
−56,621
−57,286
−57,763
−58,067
−58,24
−58,337
−58,368
−58,325
−58,212
−58,035
−57,827
−57,68
−57,642
−57,727
−58,04
−58,715
−59,923
−61,925
−64,875
−68,813
−73,841
−80,028
−87,246
−95,298
−103,815
−112,227
−120,16
−127,275
−133,012
−136,95
−138,953
−139,043
−137,549
−135,017
−131,799
−128,362
−125,631
−124,612
−126,122
−130,686
−138,682
−149,385
−160,644
−170,343
−175,713
−175,643
−173,209
−170,173
−164,375
−149,438
−111,997
−39,588
70,389
213,699
378,652
549,647
716,668
869,053
993,948
1079,416
1112,495
1089,589
1017,944
910,913
784,701
646,583
498,452
342,233
181,819
31,965
−90,696
−176,894
−224,085
−241,422
−242,521
−235,128
−223,424
−207,439
−184,746
−157,109
−128,219
−101,25
−79,79
−65,292
−57,349
−55,435
−58,267
−64,049
−71,316
−79,01
−86,057
−91,718
−95,464
−96,623
−95,105
−91,413
−86,094
−79,69
−72,797
−65,836
−59,274
−53,755
−49,527
−46,522
−44,585
−43,394
−42,661
−42,203
−41,771
−41,109
−40,102
−38,715
−36,969
−34,962
−32,74
−30,32
−27,725
−24,949
−21,993
−18,872
−15,597
−12,203
−8,722
−5,177
−1,585
2,07
5,806
9,631
13,561
17,616
21,797
26,104
30,512
34,958
39,401
43,817
48,194
52,54
56,861
61,152
65,417
69,659
73,885
78,104
82,322
86,542
90,776
95,047
99,39
103,858
108,489
113,315
118,365
123,663
129,238
135,113
141,3
147,797
154,602
161,707
169,102
176,772
184,684
192,802
201,091
209,519
218,065
226,703
235,402
244,125
252,827
261,481
270,077
278,61
287,078
295,489
303,857
312,22
320,647
329,187
337,865
346,689
355,635
364,683
373,82
383,027
392,278
401,519
410,66
419,606
428,259
436,499
444,19
451,158
457,187
462,099
465,764
468,085
469,005
468,463
466,393
462,742
457,484
450,63
442,237
432,377
421,126
408,59
394,902
380,241
364,826
348,837
332,41
315,638
298,602
281,405
264,169
247,024
230,083
213,43
197,123
181,209
165,735
150,731
136,206
122,135
108,477
95,22
82,392
70,057
58,279
47,077
36,448
26,363
16,784
7,692
−0,922
−9,074
−16,773
−24,028
−30,836
−37,174
−43,021
−48,38
−53,281
−57,783
−61,946
−65,795
−69,338
−72,568
−75,458
−78,001
−80,194
−82,026
−83,499
−84,622
−85,409
−85,895
−86,113
−86,087
−85,831
−85,343
−84,623
−83,689
−82,565
−81,284
−79,888
−78,414
−76,893
−75,364
−73,857
−72,395
−70,997
−69,672
−68,42
−67,251
−66,172
−65,193
−64,323
−63,569
−62,931
−62,41
−62,002
−61,705
−61,513
−61,419
−61,416
−61,497
−61,658
−61,894
−62,203
−62,581
−63,022
−63,521
−64,072
−64,667
−65,301
−65,965
−66,651
−67,352
−68,062
−68,775
−69,485
−70,189
−70,882
−71,561
−72,222
−72,862
−73,482
−74,078
−74,65
−75,198
−75,723
−76,224
−76,702
−77,159
−77,597
−78,016
−78,418
−78,806
−79,182
−79,548
−79,906
−80,259
−80,609
−80,958
−81,308
−81,663
−82,024
−82,394
−82,775
−83,168
−83,575
−83,999
−84,439
−84,896
−85,372
−85,864
−86,374
−86,9
−87,441
−87,996
−88,563
−89,141
−89,728
−90,322
−90,92
−91,522
−92,124
−92,725
−93,322
−93,912
−94,495
−95,067
−95,625
−96,168
−96,693
−97,199
−97,681
−98,14
−98,572
−98,977
−99,353
−99,697
−100,011
−100,291
−100,539
−100,753
−100,935
−101,083
−101,199
−101,284
−101,339
−101,366
−101,365
−101,34
−101,292
−101,223
−101,135
−101,031
−100,912
−100,781
−100,641
−100,493
−100,341
−100,188
−100,035
−99,886
−99,742
−99,608
−99,485
−99,375
−99,28
−99,203
−99,146
−99,109
−99,094
−99,103
−99,136
−99,193
−99,275
−99,382
−99,513
−99,668
−99,845
−100,042
−100,26
−100,494
−100,745
−101,009
−101,285
−101,57
−101,861
−102,157
−102,454
−102,751
−103,043
−103,328
−103,604
−103,866
−104,114
−104,344
−104,553
−104,739
−104,901
−105,036
−105,143
−105,221
−105,269
−105,286
−105,272
−105,228
−105,154
−105,05
−104,92
−104,764
−104,584
−104,384
−104,165
−103,931
−103,685
−103,429
−103,168
−102,905
−102,644
−102,389
−102,143
−101,911
−101,696
−101,502
−101,334
−101,195
−101,088
−101,017
−100,984
−100,993
−101,046
−101,145
−101,29
−101,482
−101,723
−102,01
−102,344
−102,721
−103,14
−103,597
−104,088
−104,609
−105,155
−105,72
−106,3
−106,887
−107,475
−108,057
−108,624
−109,17
−109,686
−110,163
−110,593
−110,967
−111,276
−111,513
−111,667
−111,73
−111,694
−111,55
−111,29
−110,906
−110,392
−109,739
−108,944
−108
−106,904
−105,654
−104,247
−102,683
−100,963
−99,087
−97,059
−94,882
−92,56
−90,101
−87,51
−84,797
−81,971
−79,046
−76,034
−72,952
−69,816
−66,643
−63,453
−60,266
−57,104
−53,988
−50,941
−47,984
−45,138
−42,426
−39,868
−37,487
−35,301
−33,329
−31,587
−30,091
−28,858
−27,9
−27,223
−26,831
−26,723
−26,9
−27,371
−28,14
−29,206
−30,574
−32,242
−34,203
−36,454
−38,976
−41,736
−44,695
−47,8
−51,004
−54,272
−57,57
−60,873
−64,144
−67,321
−70,35
−73,174
−75,731
−77,982
−79,88
−81,36
−82,466
−83,321
−84,095
−85,052
−86,404
−88,287
−90,917
−94,462
−98,874
−104,019
−109,599
−115,148
−120,393
−125,05
−128,6
−130,689
−131,249
−130,355
−128,419
−125,957
−123,196
−120,712
−119,551
−120,484
−124,212
−131,188
−141,161
−154,083
−168,961
−182,485
−191,274
−192,326
−185,046
−173,223
−158,446
−137,425
−102,377
−40,751
55,257
183,407
335,937
500,634
665,435
823,032
962,714
1069,607
1129,751
1129,987
1069,024
957,984
811,492
647,007
475,731
304,505
142,494
−1,384
−115,848
−194,197
−238,463
−255,808
−257,937
−252,657
−242,326
−227,368
−205,952
−178,983
−150,161
−122,558
−99,135
−81,448
−69,251
−61,831
−58,33
−57,805
−59,265
−62,127
−65,975
−70,197
−74,378
−78,2
−81,168
−82,926
−83,507
−82,936
−81,294
−78,889
−75,953
−72,726
−69,633
−67,094
−65,249
−64,073
−63,438
−63,077
−62,774
−62,372
−61,641
−60,333
−58,332
−55,619
−52,239
−48,314
−43,939
−39,174
−34,102
−28,818
−23,4
−17,924
−12,455
−7,036
−1,716
3,458
8,46
13,266
17,866
22,265
26,475
30,512
34,399
38,155
41,795
45,339
48,804
52,213
55,592
58,963
62,35
65,776
69,264
72,837
76,519
80,329
84,283
88,399
92,693
97,183
101,89
106,83
112,017
117,467
123,197
129,225
135,568
142,239
149,241
156,571
164,223
172,186
180,443
188,965
197,713
206,65
215,742
224,96
234,28
243,67
253,088
262,498
271,865
281,161
290,374
299,494
308,507
317,419
326,25
335,028
343,8
352,589
361,39
370,196
378,983
387,732
396,43
405,04
413,504
421,751
429,7
437,263
444,351
450,842
456,583
461,427
465,226
467,876
469,318
469,489
468,338
465,816
461,887
456,546
449,826
441,765
432,399
421,782
409,989
397,143
383,41
368,938
353,852
338,23
322,127
305,622
288,813
271,796
254,655
237,465
220,287
203,208
186,345
169,79
153,606
137,812
122,395
107,376
92,813
78,8
65,426
52,744
40,784
29,566
19,126
9,478
0,619
−7,503
−14,978
−21,874
−28,225
−34,041
−39,323
−44,097
−48,426
−52,387
−56,042
−59,431
−62,585
−65,537
−68,328
−70,981
−73,493
−75,826
−77,92
−79,738
−81,272
−82,528
−83,514
−84,234
−84,677
−84,838
−84,73
−84,369
−83,771
−82,951
−81,915
−80,684
−79,294
−77,795
−76,243
−74,681
−73,139
−71,643
−70,212
−68,869
−67,629
−66,505
−65,496
−64,604
−63,834
−63,191
−62,683
−62,309
−62,066
−61,946
−61,943
−62,049
−62,258
−62,564
−62,96
−63,44
−63,998
−64,631
−65,335
−66,108
−66,941
−67,827
−68,759
−69,729
−70,728
−71,748
−72,781
−73,819
−74,854
−75,882
−76,895
−77,89
−78,862
−79,807
−80,722
−81,606
−82,455
−83,268
−84,045
−84,784
−85,487
−86,154
−86,785
−87,383
−87,948
−88,483
−88,99
−89,47
−89,927
−90,361
−90,776
−91,174
−91,557
−91,928
−92,289
−92,645
−92,996
−93,345
−93,696
−94,05
−94,41
−94,776
−95,149
−95,531
−95,922
−96,323
−96,733
−97,152
−97,58
−98,017
−98,46
−98,911
−99,366
−99,825
−100,286
−100,746
−101,204
−101,659
−102,107
−102,546
−102,975
−103,392
−103,793
−104,178
−104,545
−104,89
−105,213
−105,511
−105,784
−106,03
−106,247
−106,437
−106,597
−106,727
−106,828
−106,901
−106,944
−106,959
−106,945
−106,905
−106,838
−106,746
−106,63
−106,491
−106,329
−106,148
−105,947
−105,73
−105,497
−105,25
−104,99
−104,721
−104,443
−104,159
−103,87
−103,58
−103,289
−103
−102,715
−102,436
−102,164
−101,901
−101,648
−101,407
−101,177
−100,961
−100,758
−100,569
−100,395
−100,235
−100,09
−99,959
−99,843
−99,742
−99,654
−99,58
−99,52
−99,473
−99,439
−99,418
−99,409
−99,412
−99,427
−99,454
−99,49
−99,536
−99,592
−99,655
−99,725
−99,801
−99,883
−99,968
−100,057
−100,149
−100,242
−100,336
−100,43
−100,524
−100,616
−100,707
−100,797
−100,885
−100,972
−101,059
−101,147
−101,235
−101,326
−101,419
−101,516
−101,617
−101,722
−101,831
−101,946
−102,065
−102,19
−102,321
−102,458
−102,601
−102,751
−102,908
−103,072
−103,241
−103,417
−103,598
−103,785
−103,976
−104,172
−104,371
−104,573
−104,777
−104,983
−105,187
−105,387
−105,58
−105,762
−105,929
−106,075
−106,193
−106,279
−106,327
−106,33
−106,285
−106,184
−106,025
−105,803
−105,515
−105,157
−104,724
−104,21
−103,61
−102,915
−102,121
−101,219
−100,204
−99,072
−97,818
−96,44
−94,941
−93,319
−91,575
−89,705
−87,703
−85,57
−83,313
−80,938
−78,461
−75,902
−73,288
−70,658
−68,056
−65,512
−63,055
−60,701
−58,455
−56,322
−54,309
−52,414
−50,653
−49,033
−47,559
−46,241
−45,081
−44,062
−43,156
−42,308
−41,452
−40,548
−39,575
−38,537
−37,466
−36,398
−35,384
−34,496
−33,781
−33,276
−32,999
−32,943
−33,105
−33,508
−34,196
−35,24
−36,709
−38,64
−41,031
−43,854
−47,059
−50,552
−54,174
−57,786
−61,31
−64,763
−68,304
−72,095
−76,219
−80,792
−85,938
−91,662
−97,912
−104,383
−110,494
−115,805
−119,994
−122,804
−124,103
−123,741
−121,567
−117,888
−113,395
−108,704
−104,526
−101,368
−99,585
−99,968
−103,426
−110,475
−121,234
−135,345
−151,964
−170,4
−189,742
−208,065
−222,058
−227,392
−219,973
−197,173
−159,717
−109,693
−48,294
24,593
113,301
222,012
351,904
501,477
661,341
818,526
957,588
1059,747
1112,168
1108,741
1051,959
954,828
831,466
691,89
541,774
383,604
221,891
68,333
−62,191
−159,756
−221,468
−254,046
−269,948
−277,163
−278,746
−273,726
−258,848
−234,474
−203,847
−170,918
−139,38
−110,924
−86,415
−66,455
−51,199
−40,884
−35,142
−33,051
−34,16
−38,002
−43,558
−49,841
−55,688
−59,859
−61,993
−62,286
−60,859
−58,018
−54,297
−50,175
−46,367
−43,695
−42,414
−42,398
−43,451
−45,205
−47,307
−49,527
−51,517
−52,872
−53,398
−53,01
−51,685
−49,526
−46,607
−42,959
−38,682
−33,896
−28,713
−23,284
−17,73
−12,132
−6,573
−1,111
4,219
9,376
14,339
19,101
23,647
27,977
32,1
36,014
39,731
43,272
46,669
49,974
53,241
56,509
59,813
63,18
66,631
70,191
73,877
77,698
81,666
85,795
90,097
94,595
99,305
104,241
109,413
114,828
120,494
126,422
132,626
139,111
145,878
152,925
160,244
167,828
175,662
183,721
191,966
200,367
208,888
217,503
226,188
234,908
243,633
252,33
260,968
269,523
277,99
286,359
294,629
302,813
310,923
318,986
327,039
335,096
343,157
351,211
359,232
367,201
375,092
382,859
390,449
397,795
404,807
411,401
417,478
422,909
427,575
431,353
434,112
435,78
436,302
435,631
433,743
430,606
426,2
420,546
413,672
405,62
396,449
386,209
374,979
362,892
350,062
336,607
322,632
308,182
293,301
278,044
262,465
246,64
230,64
214,512
198,314
182,119
166,009
150,087
134,424
119,035
103,955
89,223
74,904
61,117
47,961
35,505
23,809
12,905
2,822
−6,406
−14,782
−22,343
−29,151
−35,301
−40,854
−45,83
−50,267
−54,206
−57,709
−60,879
−63,794
−66,501
−69,048
−71,471
−73,801
−76,077
−78,302
−80,449
−82,478
−84,33
−85,969
−87,391
−88,587
−89,552
−90,273
−90,728
−90,913
−90,842
−90,527
−89,981
−89,215
−88,237
−87,074
−85,767
−84,361
−82,906
−81,44
−79,988
−78,574
−77,218
−75,938
−74,749
−73,657
−72,663
−71,766
−70,971
−70,283
−69,706
−69,242
−68,885
−68,63
−68,471
−68,403
−68,424
−68,53
−68,716
−68,979
−69,317
−69,729
−70,215
−70,771
−71,394
−72,079
−72,82
−73,611
−74,447
−75,322
−76,228
−77,159
−78,111
−79,078
−80,057
−81,042
−82,031
−83,019
−84,004
−84,982
−85,95
−86,905
−87,846
−88,769
−89,672
−90,553
−91,41
−92,241
−93,044
−93,817
−94,558
−95,266
−95,939
−96,576
−97,176
−97,738
−98,262
−98,748
−99,196
−99,606
−99,981
−100,32
−100,625
−100,898
−101,139
−101,351
−101,535
−101,691
−101,822
−101,929
−102,012
−102,075
−102,118
−102,143
−102,152
−102,146
−102,128
−102,099
−102,062
−102,019
−101,973
−101,925
−101,877
−101,833
−101,795
−101,764
−101,744
−101,735
−101,74
−101,76
−101,797
−101,851
−101,924
−102,016
−102,128
−102,26
−102,411
−102,583
−102,775
−102,986
−103,216
−103,465
−103,731
−104,014
−104,313
−104,626
−104,953
−105,291
−105,639
−105,995
−106,357
−106,723
−107,09
−107,457
−107,82
−108,177
−108,526
−108,863
−109,187
−109,495
−109,785
−110,054
−110,3
−110,522
−110,717
−110,886
−111,025
−111,135
−111,214
−111,262
−111,279
−111,263
−111,216
−111,137
−111,027
−110,886
−110,717
−110,519
−110,295
−110,047
−109,777
−109,487
−109,18
−108,859
−108,528
−108,188
−107,844
−107,5
−107,158
−106,823
−106,499
−106,189
−105,896
−105,625
−105,379
−105,159
−104,971
−104,815
−104,694
−104,612
−104,569
−104,569
−104,612
−104,701
−104,838
−105,023
−105,256
−105,539
−105,869
−106,247
−106,669
−107,135
−107,641
−108,183
−108,758
−109,361
−109,988
−110,633
−111,291
−111,956
−112,62
−113,279
−113,924
−114,549
−115,146
−115,709
−116,229
−116,701
−117,118
−117,474
−117,76
−117,972
−118,101
−118,14
−118,081
−117,917
−117,638
−117,239
−116,711
−116,05
−115,25
−114,309
−113,225
−111,997
−110,627
−109,116
−107,464
−105,674
−103,745
−101,681
−99,484
−97,159
−94,71
−92,141
−89,46
−86,681
−83,815
−80,873
−77,867
−74,801
−71,688
−68,546
−65,397
−62,262
−59,169
−56,149
−53,236
−50,477
−47,914
−45,585
−43,524
−41,745
−40,259
−39,083
−38,226
−37,698
−37,496
−37,593
−37,956
−38,561
−39,374
−40,356
−41,456
−42,594
−43,701
−44,72
−45,601
−46,313
−46,837
−47,145
−47,214
−47,044
−46,65
−46,087
−45,433
−44,734
−44,031
−43,369
−42,797
−42,392
−42,239
−42,378
−42,813
−43,612
−44,888
−46,811
−49,653
−53,62
−58,8
−65,312
−73,267
−82,542
−92,861
−103,74
−114,322
−123,866
−131,823
−137,47
−140,169
−139,775
−136,396
−130,597
−123,625
−116,482
−110,128
−106,043
−105,454
−109,158
−117,722
−130,81
−147,442
−166,111
−183,677
−196,422
−200,941
−195,666
−182,558
−163,223
−136,279
−96,757
−35,165
55,854
175,861
319,427
476,258
634,016
784,347
917,011
1018,555
1077,901
1085,516
1040,295
952,372
834,638
698,766
552,196
398,281
241,623
92,673
−34,835
−131,082
−192,484
−224,665
−239,171
−243,744
−242,04
−233,836
−216,319
−190,186
−158,955
−126,709
−97,512
−73,413
−54,91
−42,054
−34,5
−31,829
−33,168
−37,321
−43,415
−50,639
−58,21
−65,516
−71,787
−76,249
−78,754
−79,509
−78,706
−76,687
−73,795
−70,29
−66,647
−63,455
−60,947
−59,104
−57,842
−56,906
−56,063
−55,168
−53,966
−52,172
−49,677
−46,474
−42,626
−38,296
−33,612
−28,686
−23,685
−18,744
−13,941
−9,319
−4,86
−0,546
3,597
7,556
11,32
14,886
18,277
21,512
24,599
27,569
30,464
33,344
36,296
39,374
42,599
45,97
49,454
53,034
56,716
60,497
64,375
68,351
72,424
76,606
80,927
85,404
90,041
94,833
99,763
104,829
110,046
115,438
121,038
126,872
132,957
139,315
145,97
152,94
160,234
167,843
175,744
183,915
192,333
200,976
209,813
218,801
227,899
237,066
246,265
255,469
264,638
273,731
282,71
291,53
300,162
308,593
316,816
324,826
332,638
340,265
347,739
355,11
362,401
369,62
376,763
383,8
390,714
397,484
404,068
410,423
416,496
422,21
427,495
432,281
436,448
439,876
442,434
443,96
444,337
443,477
441,298
437,751
432,799
426,41
418,599
409,408
398,87
387,045
373,991
359,757
344,47
328,274
311,32
293,799
275,875
257,694
239,423
221,224
203,228
185,562
168,312
151,527
135,285
119,658
104,719
90,561
77,207
64,655
52,907
41,934
31,707
22,196
13,331
5,021
−2,792
−10,154
−17,092
−23,601
−29,709
−35,453
−40,871
−46,017
−50,914
−55,57
−60,003
−64,222
−68,227
−72,008
−75,528
−78,725
−81,567
−84,04
−86,14
−87,885
−89,281
−90,326
−91,028
−91,395
−91,44
−91,18
−90,632
−89,805
−88,726
−87,424
−85,945
−84,347
−82,674
−80,959
−79,232
−77,515
−75,829
−74,196
−72,63
−71,139
−69,732
−68,421
−67,214
−66,125
−65,161
−64,322
−63,61
−63,018
−62,543
−62,182
−61,932
−61,789
−61,749
−61,808
−61,965
−62,218
−62,564
−63
−63,518
−64,111
−64,773
−65,496
−66,273
−67,096
−67,956
−68,846
−69,759
−70,69
−71,633
−72,58
−73,527
−74,468
−75,398
−76,312
−77,206
−78,077
−78,921
−79,735
−80,518
−81,268
−81,983
−82,663
−83,307
−83,916
−84,489
−85,027
−85,532
−86,002
−86,441
−86,849
−87,228
−87,581
−87,91
−88,217
−88,505
−88,776
−89,034
−89,28
−89,517
−89,747
−89,971
−90,194
−90,415
−90,638
−90,863
−91,094
−91,331
−91,576
−91,83
−92,094
−92,37
−92,657
−92,956
−93,267
−93,591
−93,928
−94,276
−94,636
−95,007
−95,388
−95,778
−96,176
−96,582
−96,993
−97,408
−97,827
−98,248
−98,669
−99,09
−99,51
−99,926
−100,339
−100,746
−101,147
−101,54
−101,924
−102,297
−102,659
−103,009
−103,345
−103,666
−103,972
−104,261
−104,535
−104,791
−105,03
−105,252
−105,457
−105,646
−105,817
−105,973
−106,113
−106,238
−106,35
−106,448
−106,534
−106,608
−106,67
−106,723
−106,766
−106,799
−106,824
−106,841
−106,851
−106,854
−106,851
−106,843
−106,83
−106,814
−106,794
−106,773
−106,749
−106,724
−106,699
−106,673
−106,646
−106,618
−106,591
−106,562
−106,533
−106,502
−106,469
−106,435
−106,397
−106,357
−106,312
−106,265
−106,213
−106,157
−106,098
−106,036
−105,97
−105,903
−105,834
−105,763
−105,693
−105,623
−105,555
−105,489
−105,426
−105,367
−105,314
−105,267
−105,227
−105,196
−105,175
−105,165
−105,168
−105,186
−105,219
−105,27
−105,341
−105,433
−105,548
−105,687
−105,851
−106,042
−106,259
−106,504
−106,775
−107,071
−107,392
−107,736
−108,1
−108,481
−108,878
−109,286
−109,702
−110,122
−110,541
−110,954
−111,355
−111,74
−112,102
−112,434
−112,731
−112,985
−113,191
−113,34
−113,425
−113,44
−113,376
−113,226
−112,981
−112,634
−112,176
−111,601
−110,9
−110,069
−109,102
−107,994
−106,741
−105,341
−103,791
−102,09
−100,239
−98,236
−96,085
−93,788
−91,35
−88,777
−86,076
−83,257
−80,331
−77,31
−74,209
−71,043
−67,828
−64,584
−61,329
−58,086
−54,875
−51,718
−48,638
−45,658
−42,801
−40,089
−37,543
−35,183
−33,029
−31,1
−29,412
−27,984
−26,826
−25,943
−25,34
−25,018
−24,978
−25,229
−25,772
−26,607
−27,735
−29,153
−30,86
−32,85
−35,104
−37,586
−40,254
−43,064
−45,98
−48,982
−52,058
−55,185
−58,327
−61,429
−64,445
−67,323
−70,027
−72,497
−74,64
−76,433
−77,945
−79,342
−80,898
−82,852
−85,324
−88,475
−92,528
−97,482
−103,2
−109,346
−115,21
−120,257
−124,223
−126,673
−127,148
−125,56
−121,939
−116,697
−110,946
−105,488
−100,833
−97,934
−97,785
−101,085
−108,505
−120,071
−134,8
−151,787
−170,034
−187,611
−201,954
−210,159
−208,892
−194,981
−166,029
−119,844
−54,364
30,113
130,226
241,841
359,712
480,644
606,527
736,476
863,935
976,215
1051,614
1072,335
1034,602
945,406
823,374
687,193
542,548
390,812
232,542
72,677
−70,74
−180,068
−247,007
−272,774
−271,516
−259,11
−243,637
−227,805
−209,078
−184,063
−154,176
−122,972
−94,263
−71,779
−56,843
−49,051
−47,583
−50,99
−57,677
−66,372
−75,783
−84,485
−91,329
−95,438
−96,446
−94,627
−90,53
−84,791
−78,145
−71,374
−65,25
−60,494
−57,404
−55,896
−55,741
−56,56
−57,968
−59,614
−61,08
−61,983
−62,127
−61,451
−59,978
−57,81
−55
−51,59
−47,651
−43,25
−38,473
−33,405
−28,101
−22,625
−17,052
−11,458
−5,931
−0,54
4,684
9,724
14,573
19,238
23,715
28,008
32,131
36,091
39,91
43,615
47,225
50,764
54,261
57,742
61,242
64,792
68,409
72,108
75,905
79,813
83,849
88,033
92,376
96,894
101,602
106,517
111,655
117,032
122,658
128,543
134,7
141,14
147,88
154,929
162,286
169,945
177,896
186,119
194,596
203,295
212,172
221,188
230,303
239,49
248,724
257,977
267,208
276,374
285,426
294,335
303,084
311,657
320,045
328,248
336,281
344,186
352,019
359,818
367,595
375,337
383,015
390,603
398,083
405,44
412,647
419,649
426,383
432,786
438,79
444,312
449,228
453,373
456,566
458,66
459,558
459,195
457,525
454,506
450,098
444,265
437,004
428,329
418,25
406,783
393,952
379,8
364,441
348,052
330,817
312,905
294,448
275,558
256,359
236,976
217,531
198,151
178,947
160,035
141,571
123,706
106,582
90,334
75,024
60,662
47,258
34,816
23,344
12,857
3,339
−5,238
−12,894
−19,666
−25,598
−30,757
−35,266
−39,244
−42,798
−46,041
−49,04
−51,838
−54,484
−57,008
−59,433
−61,784
−64,067
−66,279
−68,433
−70,531
−72,563
−74,503
−76,293
−77,883
−79,239
−80,325
−81,126
−81,641
−81,862
−81,802
−81,486
−80,938
−80,186
−79,261
−78,182
−76,975
−75,672
−74,309
−72,931
−71,577
−70,275
−69,05
−67,923
−66,908
−66,017
−65,256
−64,618
−64,1
−63,698
−63,409
−63,231
−63,161
−63,192
−63,316
−63,527
−63,816
−64,178
−64,607
−65,097
−65,643
−66,239
−66,883
−67,572
−68,302
−69,068
−69,865
−70,688
−71,53
−72,388
−73,254
−74,125
−74,994
−75,857
−76,712
−77,555
−78,382
−79,192
−79,983
−80,753
−81,501
−82,228
−82,933
−83,617
−84,279
−84,92
−85,541
−86,143
−86,726
−87,291
−87,838
−88,367
−88,88
−89,377
−89,858
−90,325
−90,777
−91,216
−91,641
−92,055
−92,457
−92,848
−93,229
−93,602
−93,966
−94,323
−94,674
−95,02
−95,36
−95,696
−96,028
−96,356
−96,68
−97,001
−97,317
−97,63
−97,939
−98,244
−98,544
−98,84
−99,132
−99,42
−99,703
−99,982
−100,256
−100,526
−100,792
−101,053
−101,311
−101,564
−101,814
−102,061
−102,304
−102,543
−102,78
−103,012
−103,24
−103,463
−103,681
−103,893
−104,098
−104,295
−104,484
−104,665
−104,836
−104,998
−105,148
−105,288
−105,415
−105,53
−105,633
−105,722
−105,798
−105,859
−105,907
−105,941
−105,961
−105,967
−105,959
−105,937
−105,901
−105,851
−105,788
−105,712
−105,622
−105,52
−105,406
−105,282
−105,147
−105,004
−104,854
−104,698
−104,539
−104,378
−104,217
−104,058
−103,903
−103,754
−103,613
−103,483
−103,364
−103,26
−103,171
−103,101
−103,05
−103,02
−103,013
−103,029
−103,07
−103,136
−103,228
−103,347
−103,494
−103,669
−103,873
−104,106
−104,37
−104,665
−104,99
−105,347
−105,733
−106,149
−106,594
−107,065
−107,56
−108,077
−108,614
−109,166
−109,733
−110,309
−110,893
−111,48
−112,066
−112,647
−113,219
−113,777
−114,317
−114,833
−115,322
−115,778
−116,198
−116,576
−116,908
−117,191
−117,418
−117,586
−117,688
−117,718
−117,671
−117,54
−117,319
−117
−116,578
−116,048
−115,407
−114,651
−113,78
−112,791
−111,684
−110,461
−109,121
−107,663
−106,089
−104,395
−102,583
−100,653
−98,61
−96,457
−94,202
−91,854
−89,421
−86,919
−84,358
−81,753
−79,115
−76,45
−73,768
−71,088
−68,432
−65,828
−63,311
−60,911
−58,658
−56,588
−54,729
−53,101
−51,716
−50,565
−49,636
−48,92
−48,415
−48,129
−48,073
−48,241
−48,621
−49,193
−49,925
−50,791
−51,759
−52,768
−53,771
−54,727
−55,607
−56,424
−57,211
−57,992
−58,79
−59,598
−60,392
−61,156
−61,875
−62,538
−63,156
−63,71
−64,169
−64,594
−65,111
−65,92
−67,287
−69,384
−72,262
−76,004
−80,751
−86,535
−93,215
−100,405
−107,457
−113,807
−119,168
−123,285
−125,788
−126,412
−125,163
−122,402
−118,952
−115,632
−112,851
−111,072
−110,996
−113,156
−118,007
−125,724
−135,834
−148,089
−161,819
−174,507
−183,278
−185,41
−179,791
−169,635
−157,96
−143,377
−120,09
−76,151
0,145
111,413
253,806
416,905
585,932
750,486
898,685
1016,41
1092,429
1114,759
1080,305
996,613
874,016
728,025
571,273
411,891
260,406
124,763
10,585
−78,027
−144,044
−193,401
−229,45
−254,485
−267,714
−266,352
−251,509
−226,551
−195,462
−163,273
−132,995
−105,802
−83,044
−65,537
−53,58
−47,391
−46,449
−49,594
−55,862
−64,371
−73,87
−83,207
−91,321
−97,156
−100,327
−100,962
−99,245
−95,527
−90,4
−84,449
−78,355
−72,854
−68,238
−64,486
−61,506
−59,081
−56,956
−54,907
−52,661
−49,934
−46,66
−42,939
−38,906
−34,746
−30,589
−26,505
−22,587
−18,934
−15,589
−12,558
−9,81
−7,263
−4,884
−2,675
−0,615
1,322
3,198
5,117
7,16
9,381
11,833
14,548
17,558
20,895
24,56
28,525
32,746
37,163
41,739
46,463
51,319
56,298
61,38
66,533
71,742
77,011
82,34
87,733
93,194
98,725
104,343
110,083
115,978
122,073
128,399
134,976
141,826
148,959
156,378
164,082
172,059
180,28
188,72
197,343
206,109
214,985
223,933
232,913
241,895
250,838
259,705
268,465
277,08
285,523
293,783
301,853
309,734
317,444
325,001
332,431
339,775
347,05
354,264
361,413
368,474
375,424
382,232
388,853
395,244
401,353
407,102
412,415
417,204
421,353
424,764
427,329
428,919
429,447
428,837
427,033
424,008
419,74
414,224
407,478
399,518
390,367
380,075
368,686
356,269
342,924
328,724
313,762
298,16
282,01
265,411
248,457
231,222
213,79
196,244
178,659
161,128
143,755
126,633
109,884
93,605
77,871
62,785
48,426
34,845
22,104
10,242
−0,714
−10,73
−19,795
−27,914
−35,099
−41,389
−46,846
−51,543
−55,591
−59,087
−62,112
−64,772
−67,147
−69,302
−71,308
−73,209
−75,038
−76,832
−78,612
−80,386
−82,166
−83,939
−85,682
−87,362
−88,919
−90,307
−91,493
−92,442
−93,132
−93,555
−93,701
−93,577
−93,203
−92,595
−91,773
−90,762
−89,582
−88,259
−86,828
−85,324
−83,791
−82,267
−80,778
−79,351
−78,004
−76,749
−75,598
−74,554
−73,615
−72,779
−72,044
−71,41
−70,877
−70,445
−70,109
−69,865
−69,708
−69,634
−69,637
−69,717
−69,867
−70,087
−70,372
−70,721
−71,133
−71,606
−72,136
−72,72
−73,351
−74,025
−74,736
−75,481
−76,252
−77,044
−77,853
−78,675
−79,506
−80,343
−81,182
−82,019
−82,852
−83,677
−84,493
−85,295
−86,081
−86,85
−87,597
−88,322
−89,023
−89,697
−90,344
−90,962
−91,551
−92,108
−92,634
−93,128
−93,589
−94,018
−94,415
−94,78
−95,114
−95,418
−95,694
−95,942
−96,165
−96,364
−96,541
−96,696
−96,833
−96,951
−97,054
−97,142
−97,218
−97,283
−97,341
−97,392
−97,439
−97,484
−97,529
−97,575
−97,625
−97,679
−97,739
−97,806
−97,88
−97,963
−98,056
−98,159
−98,273
−98,399
−98,536
−98,685
−98,845
−99,017
−99,199
−99,392
−99,595
−99,807
−100,028
−100,257
−100,493
−100,736
−100,984
−101,236
−101,492
−101,748
−102,006
−102,261
−102,514
−102,762
−103,004
−103,24
−103,467
−103,685
−103,893
−104,09
−104,275
−104,448
−104,608
−104,755
−104,888
−105,006
−105,109
−105,198
−105,271
−105,33
−105,375
−105,405
−105,422
−105,425
−105,414
−105,392
−105,358
−105,312
−105,256
−105,191
−105,118
−105,038
−104,953
−104,864
−104,773
−104,681
−104,59
−104,502
−104,418
−104,339
−104,267
−104,204
−104,151
−104,109
−104,08
−104,065
−104,066
−104,083
−104,118
−104,172
−104,246
−104,34
−104,455
−104,592
−104,749
−104,928
−105,127
−105,346
−105,584
−105,839
−106,11
−106,395
−106,692
−106,999
−107,312
−107,628
−107,944
−108,255
−108,559
−108,849
−109,121
−109,371
−109,592
−109,779
−109,927
−110,03
−110,082
−110,077
−110,008
−109,869
−109,654
−109,356
−108,968
−108,484
−107,899
−107,206
−106,401
−105,479
−104,436
−103,269
−101,975
−100,553
−99,001
−97,317
−95,501
−93,555
−91,481
−89,28
−86,957
−84,517
−81,97
−79,323
−76,589
−73,779
−70,906
−67,984
−65,029
−62,059
−59,089
−56,139
−53,226
−50,369
−47,59
−44,912
−42,354
−39,938
−37,68
−35,598
−33,707
−32,023
−30,561
−29,327
−28,327
−27,564
−27,046
−26,782
−26,781
−27,045
−27,571
−28,356
−29,395
−30,681
−32,202
−33,926
−35,823
−37,858
−39,988
−42,187
−44,429
−46,687
−48,939
−51,151
−53,274
−55,279
−57,128
−58,781
−60,23
−61,451
−62,406
−63,166
−63,852
−64,641
−65,834
−67,683
−70,329
−73,977
−78,812
−84,805
−91,839
−99,518
−107,06
−113,784
−119,11
−122,371
−123,054
−120,963
−116,06
−108,867
−100,585
−92,459
−85,857
−82,197
−82,736
−88,452
−99,878
−116,985
−137,886
−158,812
−175,967
−185,462
−185,915
−180,283
−169,601
−151,962
−121,706
−66,127
23,899
149,638
307,137
481,932
657,278
820,005
954,146
1048,051
1094,78
1088,277
1032,94
938,289
813,449
670,087
515,051
354,579
199,119
59,514
−51,98
−128,889
−173,464
−193,165
−199,282
−198,689
−193,053
−182,369
−164,8
−141,481
−116,191
−91,929
−71,645
−57,053
−48,149
−44,426
−44,876
−48,014
−52,489
−57,587
−62,62
−66,688
−69,081
−69,168
−66,857
−62,765
−57,527
−51,595
−45,561
−40,21
−36,396
−34,881
−35,709
−38,304
−42,166
−46,781
−51,559
−55,781
−58,504
−59,037
−57,409
−54,146
−49,708
−44,458
−38,692
−32,763
−27,249
−22,555
−18,638
−15,123
−11,68
−8,154
−4,52
−0,787
3,161
7,431
11,962
16,556
21,023
25,278
29,321
33,21
36,968
40,581
44,063
47,455
50,808
54,162
57,535
60,924
64,333
67,78
71,286
74,88
78,584
82,412
86,378
90,497
94,781
99,249
103,919
108,804
113,921
119,289
124,926
130,855
137,091
143,639
150,499
157,663
165,118
172,849
180,83
189,024
197,4
205,927
214,578
223,333
232,163
241,027
249,891
258,718
267,481
276,165
284,761
293,258
301,663
309,998
318,293
326,594
334,927
343,291
351,679
360,068
368,437
376,77
385,033
393,175
401,133
408,828
416,172
423,072
429,402
435,007
439,734
443,415
445,923
447,171
447,085
445,611
442,712
438,356
432,544
425,312
416,705
406,783
395,629
383,34
370,056
355,96
341,227
326,037
310,542
294,859
279,102
263,376
247,767
232,351
217,184
202,301
187,738
173,532
159,701
146,254
133,171
120,402
107,908
95,664
83,65
71,869
60,325
49,021
37,973
27,21
16,76
6,655
−3,079
−12,429
−21,373
−29,886
−37,939
−45,493
−52,523
−59,014
−64,958
−70,353
−75,204
−79,518
−83,312
−86,612
−89,444
−91,834
−93,804
−95,378
−96,579
−97,435
−97,975
−98,229
−98,224
−97,986
−97,542
−96,918
−96,138
−95,225
−94,202
−93,086
−91,896
−90,651
−89,371
−88,074
−86,775
−85,492
−84,237
−83,025
−81,868
−80,775
−79,755
−78,814
−77,957
−77,189
−76,513
−75,929
−75,44
−75,044
−74,741
−74,529
−74,406
−74,369
−74,414
−74,537
−74,735
−75,002
−75,335
−75,729
−76,179
−76,68
−77,228
−77,817
−78,445
−79,105
−79,794
−80,508
−81,241
−81,991
−82,754
−83,527
−84,305
−85,087
−85,871
−86,654
−87,435
−88,212
−88,985
−89,753
−90,515
−91,27
−92,017
−92,757
−93,489
−94,213
−94,928
−95,634
−96,332
−97,02
−97,699
−98,368
−99,027
−99,676
−100,313
−100,938
