Nimi,Mikko Happonen
Syntymäaika,"20.5.2002"
Tallennuspäivä,2025-02-25 00:39:13 +0200
Luokitus,Sinusrytmi
Oireet,
Ohjelmistoversio,1.90
Laite,"Watch7,8"
Näytetaajuus,512 hertsiä


Kytkentä,I-kytkentä
Yksikkö,µV

207,195
635,438
910,318
1008,918
960,242
826,682
668,093
516,965
380,667
250,114
116,764
−14,622
−132,091
−224,648
−287,255
−324,838
−346,805
−358,856
−362,917
−357,59
−340,589
−313,722
−281,326
−248,191
−218,853
−195,399
−178,238
−167,453
−162,555
−162,977
−168,119
−176,846
−187,847
−199,965
−212,114
−223,317
−232,826
−240,008
−244,394
−246,042
−245,363
−242,873
−239,201
−234,984
−230,758
−227,067
−224,425
−223,011
−222,77
−223,564
−225,1
−227,07
−229,198
−231,144
−232,587
−233,373
−233,448
−232,827
−231,606
−229,877
−227,744
−225,371
−222,897
−220,423
−217,978
−215,499
−212,949
−210,331
−207,686
−205,106
−202,633
−200,215
−197,905
−195,897
−194,206
−192,738
−191,428
−189,927
−188,518
−188,284
−188,918
−189,434
−188,097
−181,653
−170,405
−157,556
−146,341
−141,36
−142,708
−145,994
−147,823
−144,5
−135,514
−124,153
−112,387
−101,58
−92,05
−82,4
−72,01
−60,908
−49,041
−36,6
−23,641
−10,028
4,217
18,95
34,073
49,523
65,189
80,94
96,699
112,414
128,094
143,827
159,58
175,188
190,684
206,246
221,786
237,166
252,215
266,376
280,114
294,281
308,307
322,029
334,171
343,313
351,874
361,851
375,625
395,599
418,886
442,961
465,703
483,914
498,335
509,486
516,691
520,61
520,647
516,184
507,849
496,213
481,89
465,778
448,607
430,753
412,485
393,95
374,997
355,418
335,209
314,346
292,797
270,707
248,261
225,715
203,489
182,012
161,582
142,423
124,672
108,369
93,542
80,176
68,186
57,459
47,875
39,345
31,799
25,165
19,352
14,223
9,625
5,405
1,41
−2,504
−6,445
−10,479
−14,626
−18,873
−23,209
−27,622
−32,104
−36,639
−41,18
−45,735
−50,408
−55,248
−60,217
−65,141
−69,669
−73,566
−76,881
−79,596
−81,505
−82,57
−82,945
−83,153
−84,295
−86,498
−88,644
−90,135
−91,202
−94,234
−102,896
−118,227
−137,567
−153,991
−160,074
−151,355
−126,999
−93,061
−57,177
−27,076
−11,664
−12,742
−28,082
−52,629
−76,515
−94,328
−105,038
−109,547
−111,743
−113,307
−113,587
−112,102
−108,334
−102,945
−97,068
−91,336
−86,297
−82,338
−79,838
−79,033
−79,596
−80,841
−82,274
−83,663
−84,966
−86,204
−87,223
−87,863
−88,162
−88,31
−88,485
−88,768
−89,137
−89,515
−89,884
−90,266
−90,668
−91,072
−91,449
−91,776
−92,052
−92,299
−92,534
−92,767
−93,002
−93,237
−93,472
−93,713
−93,965
−94,236
−94,53
−94,846
−95,181
−95,532
−95,894
−96,268
−96,651
−97,042
−97,437
−97,832
−98,228
−98,622
−99,015
−99,405
−99,79
−100,165
−100,527
−100,872
−101,197
−101,501
−101,784
−102,043
−102,278
−102,482
−102,651
−102,781
−102,874
−102,93
−102,947
−102,922
−102,852
−102,735
−102,572
−102,364
−102,111
−101,806
−101,439
−101
−100,485
−99,895
−99,235
−98,503
−97,687
−96,766
−95,718
−94,54
−93,245
−91,849
−90,359
−88,766
−87,049
−85,222
−83,345
−81,449
−79,505
−77,403
−75,006
−72,274
−69,32
−66,292
−63,25
−60,254
−57,418
−55,053
−53,611
−53,369
−54,256
−55,929
−58,029
−60,236
−62,281
−63,702
−63,798
−61,991
−58,113
−52,521
−45,836
−38,703
−31,577
−24,927
−19,43
−15,755
−14,34
−15,08
−17,427
−20,676
−24,34
−28,104
−31,594
−34,392
−36,082
−36,548
−36,056
−35,068
−33,924
−32,769
−31,684
−30,756
−30,157
−30,004
−30,234
−30,669
−31,155
−31,632
−32,109
−32,624
−33,168
−33,703
−34,219
−34,734
−35,274
−35,854
−36,463
−37,074
−37,665
−38,225
−38,755
−39,257
−39,733
−40,176
−40,583
−40,951
−41,278
−41,57
−41,829
−42,057
−42,256
−42,426
−42,572
−42,696
−42,805
−42,901
−42,984
−43,055
−43,112
−43,159
−43,196
−43,227
−43,252
−43,274
−43,292
−43,31
−43,328
−43,347
−43,367
−43,389
−43,412
−43,434
−43,454
−43,469
−43,479
−43,479
−43,468
−43,442
−43,398
−43,335
−43,249
−43,141
−43,008
−42,849
−42,661
−42,442
−42,189
−41,901
−41,574
−41,204
−40,79
−40,328
−39,814
−39,251
−38,634
−37,962
−37,23
−36,43
−35,562
−34,628
−33,633
−32,587
−31,504
−30,398
−29,294
−28,224
−27,214
−26,288
−25,467
−24,76
−24,187
−23,764
−23,504
−23,425
−23,535
−23,823
−24,284
−24,904
−25,649
−26,488
−27,373
−28,237
−29,035
−29,731
−30,301
−30,743
−31,05
−31,216
−31,254
−31,179
−31,014
−30,803
−30,586
−30,4
−30,315
−30,39
−30,696
−31,33
−32,347
−33,778
−35,641
−37,905
−40,543
−43,53
−46,82
−50,368
−54,12
−57,987
−61,911
−65,86
−69,785
−73,68
−77,494
−81,112
−84,537
−87,854
−91,204
−94,824
−98,82
−103,164
−107,938
−113,245
−119,015
−125,022
−130,742
−135,459
−138,655
−139,938
−139,021
−135,678
−130,4
−124,693
−119,328
−114,774
−110,412
−103,616
−95,42
−89,05
−86,679
−91,898
−102,402
−111,633
−116,845
−113,861
−99,923
−73,627
−27,633
43,675
140,667
260,125
392,714
529,511
665,058
793,214
906,292
992,144
1037,681
1036,806
992,336
916,63
824,581
724,829
618,974
503,462
376,143
242,508
114,936
7,066
−72,643
−124,156
−155,523
−175,877
−189,481
−196,758
−193,842
−177,989
−152,963
−123,48
−95,639
−74,582
−58,681
−46,407
−36,343
−26,075
−17,349
−11,236
−7,209
−5,76
−5,635
−5,402
−4,76
−3,048
0,184
4,714
10,27
16,581
23,132
29,472
35,302
40,183
43,666
45,636
46,187
45,505
43,93
41,767
39,227
36,588
34,143
32,089
30,578
29,71
29,516
30,013
31,211
33,082
35,576
38,642
42,212
46,217
50,589
55,258
60,164
65,263
70,513
75,861
81,243
86,584
91,809
96,873
101,754
106,441
110,934
115,242
119,386
123,405
127,35
131,258
135,154
139,047
142,94
146,855
150,825
154,895
159,116
163,518
168,121
172,941
177,994
183,289
188,82
194,56
200,464
206,505
212,679
218,996
225,472
232,102
238,872
245,761
252,747
259,816
266,963
274,166
281,4
288,658
295,942
303,285
310,75
318,373
326,176
334,172
342,365
350,769
359,399
368,252
377,309
386,544
395,918
405,409
414,991
424,614
434,216
443,697
452,913
461,724
469,98
477,511
484,153
489,738
494,101
497,116
498,687
498,726
497,17
493,947
488,994
482,265
473,719
463,354
451,216
437,384
421,978
405,171
387,151
368,124
348,307
327,889
307,038
285,922
264,695
243,518
222,561
202,002
182,035
162,844
144,585
127,376
111,285
96,329
82,498
69,758
58,052
47,332
37,557
28,68
20,658
13,441
6,964
1,133
−4,167
−9,069
−13,707
−18,187
−22,582
−26,936
−31,271
−35,592
−39,891
−44,154
−48,367
−52,518
−56,6
−60,604
−64,519
−68,317
−71,953
−75,37
−78,502
−81,301
−83,74
−85,804
−87,492
−88,813
−89,785
−90,436
−90,798
−90,9
−90,769
−90,426
−89,893
−89,195
−88,366
−87,443
−86,466
−85,469
−84,478
−83,513
−82,591
−81,723
−80,916
−80,171
−79,484
−78,854
−78,28
−77,764
−77,307
−76,91
−76,57
−76,286
−76,053
−75,868
−75,729
−75,631
−75,571
−75,546
−75,554
−75,592
−75,658
−75,751
−75,867
−76,002
−76,151
−76,31
−76,476
−76,644
−76,808
−76,966
−77,113
−77,246
−77,364
−77,463
−77,542
−77,599
−77,633
−77,643
−77,629
−77,591
−77,529
−77,444
−77,335
−77,204
−77,053
−76,882
−76,693
−76,489
−76,271
−76,042
−75,805
−75,563
−75,318
−75,073
−74,832
−74,597
−74,373
−74,162
−73,967
−73,793
−73,642
−73,517
−73,422
−73,359
−73,33
−73,337
−73,383
−73,47
−73,597
−73,768
−73,982
−74,241
−74,544
−74,893
−75,286
−75,725
−76,208
−76,734
−77,303
−77,913
−78,564
−79,253
−79,98
−80,742
−81,537
−82,364
−83,221
−84,104
−85,012
−85,941
−86,89
−87,856
−88,835
−89,825
−90,823
−91,827
−92,834
−93,842
−94,848
−95,85
−96,845
−97,832
−98,809
−99,773
−100,723
−101,658
−102,576
−103,475
−104,355
−105,215
−106,054
−106,87
−107,663
−108,432
−109,177
−109,895
−110,587
−111,252
−111,89
−112,5
−113,082
−113,637
−114,163
−114,662
−115,134
−115,579
−115,997
−116,388
−116,753
−117,093
−117,407
−117,696
−117,961
−118,202
−118,419
−118,612
−118,783
−118,93
−119,055
−119,157
−119,237
−119,293
−119,328
−119,341
−119,332
−119,302
−119,252
−119,183
−119,095
−118,988
−118,865
−118,724
−118,567
−118,395
−118,207
−118,004
−117,786
−117,555
−117,31
−117,053
−116,783
−116,501
−116,208
−115,904
−115,589
−115,265
−114,932
−114,59
−114,241
−113,885
−113,524
−113,159
−112,791
−112,421
−112,051
−111,683
−111,316
−110,953
−110,594
−110,24
−109,892
−109,551
−109,218
−108,894
−108,581
−108,279
−107,989
−107,713
−107,45
−107,203
−106,97
−106,753
−106,551
−106,366
−106,196
−106,043
−105,907
−105,787
−105,684
−105,598
−105,528
−105,474
−105,433
−105,406
−105,39
−105,383
−105,383
−105,389
−105,398
−105,408
−105,416
−105,421
−105,418
−105,407
−105,382
−105,342
−105,283
−105,202
−105,095
−104,96
−104,795
−104,597
−104,364
−104,094
−103,784
−103,433
−103,038
−102,597
−102,107
−101,564
−100,965
−100,307
−99,587
−98,804
−97,955
−97,038
−96,055
−95,004
−93,887
−92,706
−91,46
−90,152
−88,781
−87,347
−85,853
−84,297
−82,68
−81,003
−79,265
−77,468
−75,615
−73,707
−71,746
−69,732
−67,662
−65,536
−63,362
−61,145
−58,897
−56,636
−54,382
−52,16
−50,004
−47,945
−46,014
−44,237
−42,631
−41,211
−39,988
−38,973
−38,179
−37,608
−37,251
−37,096
−37,119
−37,292
−37,58
−37,939
−38,305
−38,618
−38,829
−38,897
−38,803
−38,545
−38,133
−37,584
−36,923
−36,192
−35,443
−34,731
−34,119
−33,661
−33,414
−33,455
−33,873
−34,741
−36,111
−38,006
−40,417
−43,327
−46,674
−50,348
−54,265
−58,351
−62,592
−67,065
−71,84
−76,929
−82,365
−88,182
−94,276
−100,488
−106,534
−111,859
−115,957
−118,536
−119,399
−118,523
−116,166
−112,596
−108,154
−103,59
−99,707
−97,094
−96,068
−96,585
−98,339
−101,114
−105,528
−111,784
−118,964
−126,681
−133,268
−137,49
−140,9
−142,595
−142,196
−140,12
−133,48
−123,156
−109,538
−88,355
−56,13
−5,333
71,928
176,001
304,331
450,454
602,489
749,568
879,74
978,434
1035,867
1048,365
1019,079
959,304
880,98
789,815
685,103
563,079
422,747
271,681
126,019
2,635
−88,408
−146,16
−178,849
−197,719
−208,996
−214,211
−211,538
−198,106
−174,778
−145,151
−113,294
−82,993
−56,517
−34,909
−18,797
−8,415
−3,421
−2,853
−5,525
−10,383
−16,247
−21,967
−26,423
−28,499
−27,761
−24,457
−19,098
−12,318
−4,838
2,675
9,492
14,825
18,308
19,95
19,937
18,626
16,398
13,592
10,579
7,75
5,346
3,502
2,321
1,839
2,071
3,03
4,682
6,968
9,848
13,281
17,207
21,564
26,274
31,249
36,432
41,778
47,233
52,743
58,232
63,619
68,854
73,908
78,762
83,404
87,827
92,032
96,045
99,902
103,638
107,284
110,866
114,402
117,922
121,459
125,051
128,739
132,556
136,528
140,686
145,058
149,674
154,559
159,724
165,17
170,899
176,908
183,189
189,731
196,506
203,488
210,651
217,973
225,438
233,028
240,723
248,494
256,306
264,127
271,936
279,719
287,468
295,186
302,885
310,595
318,373
326,271
334,331
342,574
350,989
359,555
368,244
377,034
385,898
394,797
403,683
412,491
421,149
429,573
437,657
445,254
452,172
458,21
463,177
466,924
469,351
470,384
469,962
468,026
464,535
459,47
452,82
444,592
434,785
423,401
410,483
396,138
380,534
363,882
346,394
328,246
309,583
290,533
271,222
251,787
232,347
213,003
193,866
175,058
156,732
139,073
122,222
106,255
91,201
77,037
63,729
51,269
39,651
28,862
18,885
9,692
1,264
−6,403
−13,338
−19,598
−25,282
−30,538
−35,479
−40,175
−44,674
−48,989
−53,128
−57,112
−60,949
−64,629
−68,148
−71,5
−74,688
−77,734
−80,64
−83,388
−85,935
−88,213
−90,172
−91,791
−93,056
−93,969
−94,537
−94,768
−94,683
−94,322
−93,719
−92,904
−91,9
−90,721
−89,388
−87,934
−86,393
−84,811
−83,221
−81,65
−80,12
−78,648
−77,251
−75,938
−74,714
−73,572
−72,51
−71,527
−70,622
−69,8
−69,06
−68,399
−67,813
−67,3
−66,855
−66,477
−66,161
−65,903
−65,699
−65,546
−65,441
−65,383
−65,37
−65,397
−65,461
−65,557
−65,682
−65,831
−66,001
−66,186
−66,383
−66,589
−66,8
−67,015
−67,232
−67,449
−67,664
−67,878
−68,091
−68,302
−68,511
−68,719
−68,925
−69,131
−69,336
−69,54
−69,744
−69,947
−70,15
−70,354
−70,558
−70,763
−70,969
−71,177
−71,386
−71,597
−71,81
−72,025
−72,243
−72,463
−72,686
−72,913
−73,144
−73,379
−73,619
−73,862
−74,108
−74,358
−74,611
−74,866
−75,121
−75,378
−75,634
−75,89
−76,145
−76,398
−76,65
−76,9
−77,148
−77,394
−77,639
−77,882
−78,124
−78,366
−78,608
−78,85
−79,094
−79,34
−79,588
−79,84
−80,095
−80,355
−80,619
−80,888
−81,162
−81,441
−81,726
−82,016
−82,312
−82,615
−82,924
−83,239
−83,562
−83,892
−84,229
−84,573
−84,925
−85,284
−85,651
−86,024
−86,404
−86,791
−87,183
−87,581
−87,983
−88,39
−88,799
−89,211
−89,625
−90,038
−90,452
−90,864
−91,275
−91,682
−92,087
−92,488
−92,884
−93,275
−93,661
−94,042
−94,416
−94,784
−95,145
−95,498
−95,844
−96,181
−96,51
−96,831
−97,142
−97,444
−97,736
−98,018
−98,29
−98,552
−98,804
−99,045
−99,276
−99,497
−99,708
−99,909
−100,101
−100,284
−100,459
−100,626
−100,785
−100,938
−101,084
−101,225
−101,361
−101,492
−101,619
−101,743
−101,864
−101,982
−102,098
−102,213
−102,327
−102,44
−102,552
−102,665
−102,778
−102,893
−103,009
−103,126
−103,246
−103,367
−103,492
−103,619
−103,75
−103,883
−104,02
−104,161
−104,304
−104,451
−104,6
−104,752
−104,906
−105,061
−105,217
−105,373
−105,529
−105,685
−105,839
−105,992
−106,144
−106,293
−106,441
−106,588
−106,733
−106,877
−107,021
−107,165
−107,31
−107,456
−107,605
−107,757
−107,912
−108,072
−108,238
−108,408
−108,584
−108,767
−108,956
−109,153
−109,357
−109,569
−109,79
−110,021
−110,261
−110,512
−110,775
−111,049
−111,334
−111,631
−111,941
−112,261
−112,592
−112,933
−113,282
−113,638
−113,997
−114,359
−114,719
−115,075
−115,423
−115,76
−116,082
−116,387
−116,67
−116,928
−117,159
−117,359
−117,526
−117,656
−117,747
−117,796
−117,799
−117,754
−117,657
−117,504
−117,292
−117,017
−116,676
−116,266
−115,786
−115,232
−114,603
−113,899
−113,121
−112,269
−111,343
−110,342
−109,268
−108,122
−106,906
−105,622
−104,272
−102,857
−101,381
−99,847
−98,26
−96,623
−94,933
−93,187
−91,386
−89,539
−87,656
−85,75
−83,836
−81,935
−80,073
−78,288
−76,613
−75,075
−73,694
−72,483
−71,459
−70,644
−70,064
−69,74
−69,68
−69,879
−70,327
−71,011
−71,906
−72,97
−74,13
−75,3
−76,409
−77,408
−78,268
−78,977
−79,51
−79,845
−79,966
−79,87
−79,578
−79,114
−78,494
−77,74
−76,889
−76,013
−75,233
−74,679
−74,456
−74,625
−75,201
−76,186
−77,588
−79,406
−81,633
−84,22
−87,078
−90,178
−93,569
−97,342
−101,63
−106,489
−111,851
−117,69
−124,07
−130,999
−138,398
−146,004
−153,351
−160,03
−165,782
−170,341
−173,305
−174,254
−172,963
−169,545
−164,32
−157,855
−150,784
−143,511
−137,508
−134,455
−134,648
−138,762
−145,422
−151,618
−157,412
−162,097
−166,572
−174,309
−183,822
−192,437
−193,602
−175,757
−130,874
−52,841
57,626
192,383
342,542
496,483
645,478
782,818
898,76
985,667
1035,119
1041,026
1006,688
938,313
845,114
736,793
615,091
480,584
336,102
187,107
47,842
−66,538
−148,051
−196,002
−219,88
−231,674
−237,194
−237,265
−227,528
−205,338
−174,808
−142,405
−116,17
−99,787
−90,491
−85,178
−80,086
−73,993
−69,454
−67,502
−68,519
−72,12
−75,906
−78,398
−79,018
−77,115
−72,856
−66,709
−58,917
−49,987
−40,678
−31,583
−23,287
−16,401
−11,139
−7,456
−5,252
−4,247
−4,111
−4,577
−5,338
−6,096
−6,731
−7,189
−7,441
−7,508
−7,359
−6,946
−6,254
−5,256
−3,904
−2,17
−0,038
2,49
5,366
8,545
11,988
15,662
19,555
23,651
27,93
32,373
36,955
41,643
46,406
51,194
55,944
60,616
65,186
69,646
74,012
78,301
82,525
86,707
90,869
95,035
99,227
103,465
107,762
112,142
116,633
121,268
126,095
131,15
136,468
142,073
147,978
154,188
160,705
167,518
174,606
181,942
189,493
197,225
205,113
213,129
221,253
229,457
237,711
245,976
254,211
262,378
270,45
278,408
286,24
293,947
301,544
309,067
316,575
324,119
331,737
339,446
347,239
355,11
363,045
371,03
379,053
387,089
395,102
403,052
410,878
418,493
425,787
432,598
438,733
444,005
448,234
451,285
453,054
453,437
452,353
449,734
445,517
439,656
432,105
422,813
411,769
399,008
384,606
368,718
351,536
333,26
314,112
294,278
273,932
253,261
232,432
211,6
190,933
170,599
150,786
131,719
113,582
96,505
80,585
65,847
52,287
39,89
28,602
18,374
9,16
0,892
−6,484
−13,011
−18,767
−23,841
−28,352
−32,471
−36,334
−40,039
−43,67
−47,267
−50,856
−54,461
−58,077
−61,68
−65,255
−68,779
−72,239
−75,635
−78,943
−82,127
−85,136
−87,889
−90,329
−92,422
−94,143
−95,484
−96,446
−97,033
−97,267
−97,186
−96,823
−96,211
−95,376
−94,337
−93,122
−91,767
−90,311
−88,799
−87,269
−85,746
−84,254
−82,812
−81,434
−80,131
−78,906
−77,755
−76,676
−75,667
−74,731
−73,868
−73,081
−72,363
−71,713
−71,126
−70,598
−70,128
−69,711
−69,343
−69,021
−68,744
−68,508
−68,314
−68,16
−68,043
−67,959
−67,904
−67,876
−67,871
−67,885
−67,915
−67,958
−68,011
−68,073
−68,142
−68,217
−68,295
−68,377
−68,461
−68,547
−68,635
−68,725
−68,818
−68,914
−69,013
−69,116
−69,224
−69,337
−69,456
−69,582
−69,715
−69,857
−70,008
−70,169
−70,339
−70,519
−70,71
−70,91
−71,12
−71,34
−71,568
−71,804
−72,047
−72,296
−72,55
−72,808
−73,068
−73,329
−73,589
−73,846
−74,098
−74,345
−74,584
−74,813
−75,03
−75,235
−75,424
−75,598
−75,753
−75,888
−76,003
−76,096
−76,165
−76,21
−76,23
−76,224
−76,193
−76,136
−76,054
−75,947
−75,816
−75,661
−75,484
−75,286
−75,068
−74,831
−74,578
−74,309
−74,027
−73,733
−73,428
−73,116
−72,796
−72,471
−72,143
−71,813
−71,483
−71,156
−70,831
−70,512
−70,2
−69,896
−69,603
−69,321
−69,052
−68,798
−68,559
−68,336
−68,131
−67,944
−67,775
−67,626
−67,495
−67,384
−67,292
−67,219
−67,164
−67,128
−67,11
−67,109
−67,125
−67,157
−67,204
−67,267
−67,343
−67,433
−67,534
−67,647
−67,77
−67,901
−68,04
−68,185
−68,334
−68,487
−68,64
−68,793
−68,944
−69,091
−69,233
−69,368
−69,494
−69,61
−69,713
−69,804
−69,88
−69,94
−69,983
−70,008
−70,013
−69,999
−69,964
−69,907
−69,829
−69,728
−69,605
−69,459
−69,291
−69,101
−68,891
−68,659
−68,409
−68,141
−67,857
−67,558
−67,247
−66,926
−66,596
−66,261
−65,923
−65,585
−65,25
−64,921
−64,6
−64,292
−63,999
−63,725
−63,473
−63,246
−63,048
−62,881
−62,749
−62,655
−62,6
−62,589
−62,621
−62,701
−62,828
−63,005
−63,232
−63,51
−63,838
−64,216
−64,643
−65,119
−65,641
−66,208
−66,817
−67,468
−68,157
−68,881
−69,637
−70,421
−71,23
−72,059
−72,905
−73,761
−74,624
−75,487
−76,347
−77,197
−78,031
−78,844
−79,631
−80,386
−81,103
−81,778
−82,405
−82,979
−83,497
−83,954
−84,347
−84,673
−84,93
−85,114
−85,223
−85,256
−85,211
−85,084
−84,875
−84,58
−84,198
−83,729
−83,171
−82,524
−81,789
−80,967
−80,06
−79,072
−78,005
−76,86
−75,641
−74,349
−72,988
−71,559
−70,065
−68,507
−66,887
−65,207
−63,472
−61,683
−59,842
−57,95
−56,003
−54,001
−51,953
−49,867
−47,754
−45,63
−43,511
−41,423
−39,401
−37,472
−35,664
−34,002
−32,499
−31,177
−30,055
−29,148
−28,474
−28,038
−27,83
−27,835
−28,036
−28,395
−28,878
−29,432
−29,983
−30,478
−30,869
−31,118
−31,209
−31,119
−30,83
−30,346
−29,676
−28,843
−27,899
−26,892
−25,874
−24,927
−24,116
−23,521
−23,252
−23,386
−23,994
−25,128
−26,795
−28,996
−31,718
−34,923
−38,569
−42,578
−46,818
−51,21
−55,731
−60,397
−65,34
−70,64
−76,271
−82,276
−88,728
−95,603
−102,786
−109,906
−116,327
−121,527
−125,163
−126,911
−126,488
−123,712
−118,555
−111,473
−103,344
−95,009
−87,234
−80,762
−76,339
−74,677
−76,462
−81,942
−90,829
−102,867
−116,918
−130,446
−140,854
−145,369
−142,607
−134,786
−123,687
−107,974
−83,299
−39,934
31,951
134,723
265,425
414,855
568,839
716,74
847,902
950,974
1018,208
1042,588
1023,831
969,014
887,3
788,415
675,295
547,597
407,332
259,757
119,179
1,543
−84,657
−137,876
−166,237
−182,025
−192,047
−198,532
−199,894
−192,736
−177,264
−156,225
−132,946
−110,501
−90,128
−72,361
−57,586
−45,927
−37,708
−32,746
−30,37
−30,313
−32,273
−35,486
−39,225
−42,524
−44,246
−43,991
−41,811
−37,714
−31,967
−25,046
−17,4
−9,744
−2,909
2,732
7,076
10,121
12,07
13,151
13,562
13,618
13,648
13,815
14,179
14,741
15,454
16,303
17,29
18,386
19,566
20,835
22,228
23,802
25,595
27,616
29,855
32,302
34,962
37,842
40,945
44,269
47,803
51,536
55,467
59,597
63,915
68,413
73,065
77,83
82,684
87,609
92,594
97,638
102,74
107,895
113,099
118,349
123,642
128,983
134,373
139,804
145,263
150,719
156,153
161,569
166,982
172,405
177,851
183,32
188,814
194,348
199,961
205,684
211,541
217,543
223,694
230,018
236,549
243,344
250,452
257,888
265,654
273,754
282,198
291,007
300,204
309,773
319,663
329,83
340,227
350,822
361,578
372,429
383,297
394,083
404,699
415,078
425,151
434,816
443,948
452,396
459,989
466,595
472,104
476,394
479,362
480,899
480,916
479,359
476,189
471,369
464,852
456,576
446,515
434,703
421,217
406,183
389,767
372,129
353,446
333,921
313,746
293,117
272,218
251,2
230,228
209,483
189,171
169,525
150,739
132,948
116,253
100,705
86,321
73,105
61,028
50,021
40,021
30,96
22,776
15,428
8,848
2,942
−2,413
−7,375
−12,074
−16,602
−21,035
−25,419
−29,785
−34,159
−38,532
−42,871
−47,145
−51,327
−55,396
−59,348
−63,16
−66,791
−70,188
−73,277
−76,002
−78,334
−80,247
−81,732
−82,788
−83,418
−83,643
−83,505
−83,041
−82,284
−81,264
−80,003
−78,532
−76,888
−75,115
−73,259
−71,359
−69,444
−67,542
−65,674
−63,858
−62,11
−60,436
−58,836
−57,31
−55,862
−54,492
−53,208
−52,009
−50,895
−49,863
−48,91
−48,034
−47,232
−46,502
−45,84
−45,243
−44,708
−44,233
−43,818
−43,46
−43,155
−42,899
−42,688
−42,517
−42,381
−42,277
−42,198
−42,141
−42,102
−42,077
−42,063
−42,058
−42,058
−42,061
−42,065
−42,069
−42,071
−42,07
−42,065
−42,055
−42,041
−42,022
−41,998
−41,968
−41,933
−41,894
−41,849
−41,8
−41,747
−41,691
−41,63
−41,566
−41,498
−41,426
−41,35
−41,269
−41,183
−41,091
−40,993
−40,888
−40,775
−40,653
−40,521
−40,379
−40,225
−40,059
−39,88
−39,688
−39,482
−39,263
−39,031
−38,788
−38,533
−38,268
−37,994
−37,714
−37,43
−37,144
−36,859
−36,579
−36,307
−36,048
−35,807
−35,588
−35,398
−35,243
−35,128
−35,062
−35,05
−35,1
−35,22
−35,418
−35,7
−36,075
−36,551
−37,134
−37,831
−38,65
−39,596
−40,675
−41,891
−43,25
−44,755
−46,409
−48,214
−50,172
−52,283
−54,548
−56,965
−59,534
−62,25
−65,112
−68,115
−71,254
−74,522
−77,913
−81,419
−85,031
−88,74
−92,536
−96,407
−100,343
−104,33
−108,357
−112,411
−116,477
−120,543
−124,596
−128,621
−132,606
−136,538
−140,405
−144,195
−147,896
−151,497
−154,989
−158,362
−161,607
−164,717
−167,683
−170,501
−173,163
−175,667
−178,008
−180,185
−182,194
−184,036
−185,711
−187,22
−188,565
−189,75
−190,778
−191,654
−192,384
−192,974
−193,433
−193,767
−193,986
−194,097
−194,111
−194,036
−193,882
−193,656
−193,37
−193,03
−192,647
−192,229
−191,784
−191,32
−190,844
−190,365
−189,887
−189,418
−188,962
−188,525
−188,109
−187,718
−187,355
−187,022
−186,721
−186,452
−186,216
−186,013
−185,842
−185,701
−185,588
−185,499
−185,431
−185,379
−185,34
−185,308
−185,279
−185,247
−185,208
−185,157
−185,088
−184,997
−184,878
−184,725
−184,532
−184,295
−184,006
−183,661
−183,253
−182,778
−182,233
−181,614
−180,919
−180,145
−179,292
−178,36
−177,347
−176,254
−175,077
−173,816
−172,468
−171,033
−169,51
−167,898
−166,198
−164,411
−162,543
−160,598
−158,582
−156,498
−154,348
−152,131
−149,851
−147,518
−145,141
−142,734
−140,315
−137,906
−135,539
−133,249
−131,062
−128,997
−127,067
−125,273
−123,623
−122,119
−120,764
−119,565
−118,528
−117,653
−116,946
−116,408
−116,025
−115,776
−115,616
−115,489
−115,363
−115,22
−115,055
−114,888
−114,737
−114,626
−114,604
−114,702
−114,942
−115,344
−115,899
−116,596
−117,445
−118,455
−119,663
−121,121
−122,854
−124,872
−127,166
−129,687
−132,381
−135,171
−137,941
−140,609
−143,098
−145,319
−147,297
−149,112
−150,862
−152,743
−154,905
−157,389
−160,329
−163,909
−168,073
−172,684
−177,463
−181,814
−185,318
−187,726
−188,531
−187,227
−183,7
−177,976
−170,439
−162,112
−153,798
−146,175
−140,418
−137,68
−138,717
−144,061
−153,764
−166,482
−180,101
−192,563
−200,986
−203,755
−201,829
−195,065
−181,735
−157,726
−114,647
−45,994
48,857
165,656
295,074
427,518
556,835
677,874
784,124
866,839
915,827
923,564
890,705
824,453
735,085
632,533
519,479
395,227
261,156
121,722
−10,074
−118,608
−195,056
−237,486
−253,629
−256,472
−254,056
−249,781
−242,877
−229,762
−210,144
−186,326
−161,084
−137,535
−117,14
−99,96
−85,922
−74,732
−66,205
−60,286
−56,715
−55,193
−55,364
−56,82
−59,092
−61,633
−63,844
−65,149
−65,313
−64,347
−62,367
−59,59
−56,255
−52,652
−49,185
−46,282
−44,088
−42,515
−41,377
−40,441
−39,559
−38,627
−37,493
−35,987
−34,012
−31,556
−28,683
−25,498
−22,067
−18,42
−14,586
−10,599
−6,527
−2,453
1,559
5,474
9,294
13,035
16,721
20,382
24,043
27,732
31,487
35,334
39,279
43,316
47,42
51,555
55,717
59,926
64,197
68,555
73,008
77,556
82,205
86,961
91,825
96,797
101,876
107,058
112,358
117,799
123,416
129,254
135,345
141,703
148,337
155,248
162,428
169,868
177,542
185,414
193,449
201,62
209,903
218,28
226,73
235,222
243,718
252,172
260,546
268,811
276,947
284,941
292,794
300,515
308,143
315,735
323,345
331,011
338,749
346,549
354,404
362,299
370,216
378,14
386,043
393,888
401,631
409,212
416,546
423,529
430,007
435,793
440,707
444,581
447,287
448,735
448,839
447,526
444,743
440,437
434,574
427,122
418,045
407,33
395,008
381,149
365,892
349,425
331,94
313,642
294,705
275,28
255,526
235,594
215,624
195,761
176,154
156,964
138,392
120,627
103,812
88,05
73,384
59,811
47,316
35,865
25,422
15,959
7,435
−0,196
−6,971
−12,937
−18,167
−22,757
−26,848
−30,599
−34,127
−37,527
−40,858
−44,15
−47,431
−50,711
−53,988
−57,255
−60,504
−63,726
−66,922
−70,092
−73,215
−76,255
−79,15
−81,823
−84,223
−86,317
−88,083
−89,517
−90,62
−91,399
−91,878
−92,09
−92,063
−91,822
−91,386
−90,772
−90,005
−89,117
−88,145
−87,131
−86,108
−85,1
−84,127
−83,205
−82,344
−81,551
−80,824
−80,155
−79,541
−78,977
−78,463
−78
−77,582
−77,206
−76,868
−76,563
−76,288
−76,038
−75,808
−75,593
−75,39
−75,196
−75,009
−74,829
−74,651
−74,474
−74,295
−74,116
−73,936
−73,755
−73,57
−73,377
−73,172
−72,957
−72,738
−72,518
−72,302
−72,09
−71,887
−71,699
−71,534
−71,397
−71,287
−71,198
−71,125
−71,067
−71,025
−71,01
−71,023
−71,063
−71,113
−71,138
−71,112
−71,025
−70,878
−70,697
−70,489
−70,22
−69,899
−69,606
−69,412
−69,365
−69,393
−69,259
−68,829
−68,171
−67,352
−66,372
−65,245
−64,011
−63
−62,967
−63,982
−65,212
−66,049
−66,457
−68,263
−74,629
−86,497
−101,34
−113,414
−116,472
−108,129
−91,192
−72,205
−57,138
−48,819
−46,851
−48,341
−51,127
−54,42
−57,852
−61,756
−66,204
−70,693
−74,763
−77,902
−79,621
−79,875
−79,052
−77,665
−76,103
−74,577
−73,132
−71,804
−70,76
−70,108
−69,787
−69,634
−69,498
−69,312
−69,102
−68,925
−68,785
−68,659
−68,537
−68,435
−68,383
−68,395
−68,468
−68,577
−68,702
−68,834
−68,972
−69,119
−69,275
−69,436
−69,594
−69,743
−69,88
−70,007
−70,125
−70,236
−70,339
−70,434
−70,521
−70,602
−70,681
−70,757
−70,83
−70,898
−70,957
−71,007
−71,049
−71,083
−71,111
−71,13
−71,142
−71,148
−71,147
−71,142
−71,134
−71,122
−71,107
−71,091
−71,074
−71,057
−71,043
−71,03
−71,021
−71,015
−71,013
−71,015
−71,023
−71,036
−71,054
−71,08
−71,111
−71,15
−71,196
−71,249
−71,308
−71,374
−71,446
−71,524
−71,607
−71,693
−71,782
−71,872
−71,962
−72,049
−72,133
−72,21
−72,278
−72,335
−72,379
−72,407
−72,417
−72,407
−72,375
−72,32
−72,24
−72,132
−71,996
−71,829
−71,628
−71,391
−71,115
−70,795
−70,43
−70,015
−69,547
−69,026
−68,447
−67,81
−67,114
−66,359
−65,545
−64,671
−63,737
−62,743
−61,686
−60,566
−59,384
−58,136
−56,825
−55,446
−54,001
−52,491
−50,917
−49,281
−47,58
−45,811
−43,973
−42,071
−40,112
−38,108
−36,073
−34,023
−31,978
−29,972
−28,033
−26,189
−24,466
−22,875
−21,424
−20,127
−18,995
−18,042
−17,27
−16,668
−16,216
−15,899
−15,696
−15,587
−15,542
−15,501
−15,41
−15,227
−14,921
−14,485
−13,931
−13,263
−12,491
−11,639
−10,746
−9,874
−9,098
−8,462
−7,997
−7,727
−7,689
−7,949
−8,578
−9,623
−11,109
−13,019
−15,314
−17,952
−20,89
−24,058
−27,346
−30,604
−33,713
−36,661
−39,536
−42,494
−45,665
−49,094
−52,854
−57,095
−61,883
−67,103
−72,45
−77,413
−81,501
−84,446
−85,97
−85,649
−83,221
−78,75
−72,61
−65,57
−58,488
−51,958
−46,723
−43,868
−44,252
−48,416
−56,499
−68,009
−82,31
−97,965
−112,101
−121,767
−124,047
−118,43
−107,291
−90,51
−65,727
−26,838
35,551
124,554
237,272
366,375
500,415
631,723
755,617
865,67
954,455
1012,065
1029,385
1005,714
947,051
863,36
764,655
653,21
528,243
391,371
248,325
113,961
4,4
−72,101
−115,144
−134,155
−142,103
−146,053
−148,103
−146,24
−136,826
−119,983
−98,456
−75,477
−54,084
−35,573
−20,114
−7,739
1,631
8,006
11,683
13,215
12,996
11,513
9,365
7,144
5,634
5,609
7,326
10,707
15,595
21,61
28,302
35,241
41,811
47,374
51,648
54,598
56,325
57,093
57,158
56,715
56,023
55,342
54,807
54,488
54,408
54,541
54,889
55,478
56,328
57,469
58,922
60,689
62,758
65,101
67,686
70,494
73,511
76,729
80,141
83,737
87,505
91,434
95,506
99,692
103,944
108,204
112,428
116,598
120,708
124,774
128,809
132,822
136,83
140,857
144,922
149,045
153,243
157,524
161,906
166,413
171,081
175,951
181,065
186,445
192,104
198,046
204,268
210,762
217,51
224,48
231,633
238,933
246,351
253,865
261,459
269,107
276,776
284,425
292,006
299,486
306,847
314,071
321,144
328,065
334,839
341,498
348,1
354,68
361,25
367,804
374,307
380,733
387,068
393,292
399,384
405,308
411
416,407
421,481
426,142
430,286
433,775
436,417
438,068
438,627
438,015
436,191
433,111
428,714
422,966
415,85
407,356
397,492
386,26
373,646
359,699
344,513
328,231
311,058
293,162
274,668
255,705
236,388
216,836
197,189
177,567
158,074
138,838
120
101,71
84,133
67,38
51,503
36,525
22,424
9,189
−3,168
−14,656
−25,294
−35,104
−44,121
−52,378
−59,901
−66,757
−73,053
−78,892
−84,39
−89,628
−94,649
−99,486
−104,16
−108,685
−113,075
−117,333
−121,45
−125,422
−129,249
−132,928
−136,455
−139,802
−142,914
−145,745
−148,256
−150,423
−152,241
−153,708
−154,826
−155,608
−156,078
−156,263
−156,196
−155,902
−155,402
−154,72
−153,883
−152,924
−151,889
−150,812
−149,72
−148,639
−147,587
−146,58
−145,633
−144,751
−143,936
−143,186
−142,501
−141,882
−141,333
−140,855
−140,444
−140,098
−139,814
−139,586
−139,413
−139,292
−139,219
−139,191
−139,203
−139,255
−139,345
−139,471
−139,629
−139,815
−140,025
−140,254
−140,5
−140,759
−141,025
−141,296
−141,568
−141,838
−142,105
−142,367
−142,62
−142,865
−143,098
−143,321
−143,531
−143,73
−143,915
−144,088
−144,249
−144,397
−144,535
−144,663
−144,781
−144,89
−144,993
−145,089
−145,182
−145,272
−145,36
−145,449
−145,54
−145,634
−145,734
−145,839
−145,95
−146,07
−146,199
−146,337
−146,486
−146,645
−146,815
−146,995
−147,187
−147,389
−147,602
−147,825
−148,058
−148,301
−148,553
−148,813
−149,08
−149,355
−149,636
−149,922
−150,213
−150,506
−150,801
−151,096
−151,389
−151,68
−151,967
−152,249
−152,523
−152,79
−153,048
−153,295
−153,532
−153,756
−153,968
−154,167
−154,352
−154,523
−154,68
−154,822
−154,949
−155,061
−155,157
−155,239
−155,305
−155,356
−155,392
−155,413
−155,419
−155,41
−155,387
−155,351
−155,302
−155,24
−155,167
−155,084
−154,991
−154,89
−154,782
−154,668
−154,549
−154,426
−154,3
−154,173
−154,044
−153,915
−153,787
−153,66
−153,534
−153,411
−153,29
−153,172
−153,057
−152,946
−152,838
−152,733
−152,632
−152,534
−152,44
−152,348
−152,26
−152,174
−152,091
−152,01
−151,93
−151,851
−151,773
−151,693
−151,612
−151,529
−151,443
−151,353
−151,258
−151,158
−151,051
−150,938
−150,817
−150,687
−150,549
−150,4
−150,243
−150,075
−149,897
−149,709
−149,511
−149,304
−149,088
−148,863
−148,63
−148,39
−148,143
−147,89
−147,632
−147,371
−147,106
−146,839
−146,572
−146,303
−146,036
−145,769
−145,504
−145,242
−144,982
−144,726
−144,472
−144,223
−143,977
−143,734
−143,496
−143,262
−143,032
−142,806
−142,584
−142,364
−142,145
−141,928
−141,71
−141,49
−141,267
−141,038
−140,801
−140,555
−140,296
−140,023
−139,732
−139,42
−139,084
−138,723
−138,333
−137,911
−137,456
−136,966
−136,439
−135,873
−135,268
−134,622
−133,933
−133,201
−132,423
−131,599
−130,727
−129,803
−128,825
−127,793
−126,705
−125,558
−124,354
−123,09
−121,766
−120,386
−118,949
−117,457
−115,909
−114,305
−112,648
−110,938
−109,176
−107,363
−105,499
−103,583
−101,618
−99,605
−97,546
−95,438
−93,278
−91,06
−88,783
−86,45
−84,07
−81,65
−79,203
−76,746
−74,302
−71,903
−69,579
−67,351
−65,24
−63,259
−61,423
−59,758
−58,282
−57,015
−55,963
−55,121
−54,479
−54,023
−53,724
−53,543
−53,425
−53,297
−53,101
−52,797
−52,354
−51,757
−50,993
−50,042
−48,9
−47,577
−46,101
−44,513
−42,863
−41,198
−39,581
−38,096
−36,833
−35,903
−35,398
−35,379
−35,892
−36,947
−38,542
−40,667
−43,293
−46,375
−49,83
−53,538
−57,412
−61,421
−65,591
−70,007
−74,725
−79,728
−85,044
−90,77
−96,92
−103,423
−109,993
−116,089
−121,229
−125,088
−127,379
−127,807
−126,168
−122,384
−116,757
−110,051
−103,094
−96,624
−91,302
−87,854
−87,008
−89,319
−95,047
−103,954
−115,4
−128,722
−142,533
−154,121
−160,749
−159,733
−149,757
−132,41
−108,665
−77,182
−34,358
26,777
111,854
220,504
348,359
487,084
626,427
759,138
877,208
970,991
1031,671
1051,065
1028,061
968,964
883,753
782,824
669,444
543,781
407,378
265,147
130,868
18,811
−63,726
−116,083
−146,438
−165,12
−176,935
−182,698
−180,252
−167,138
−144,579
−116,198
−85,994
−57,413
−32,558
−12,53
2,101
11,161
15,015
14,695
11,409
6,233
0,38
−5,04
−9,049
−10,739
−9,832
−6,652
−1,743
4,222
10,495
16,418
21,351
24,694
26,229
26,058
24,449
21,816
18,597
15,204
12,022
9,379
7,458
6,318
5,982
6,438
7,659
9,61
12,229
15,437
19,169
23,374
27,971
32,865
37,938
43,052
48,113
53,065
57,865
62,487
66,904
71,084
75,019
78,724
82,208
85,485
88,567
91,46
94,195
96,818
99,38
101,938
104,537
107,209
109,985
112,894
115,96
119,209
122,658
126,312
130,188
134,305
138,684
143,354
148,332
153,625
159,235
165,162
171,396
177,928
184,736
191,786
199,049
206,497
214,109
221,867
229,749
237,727
245,768
253,829
261,877
269,887
277,837
285,713
293,513
301,251
308,956
316,682
324,473
332,359
340,354
348,456
356,657
364,942
373,298
381,708
390,147
398,583
406,966
415,225
423,261
430,95
438,136
444,631
450,256
454,841
458,239
460,331
461,016
460,21
457,836
453,826
448,113
440,639
431,385
420,371
407,662
393,366
377,631
360,645
342,611
323,752
304,28
284,392
264,269
244,084
224,016
204,255
185,011
166,489
148,853
132,23
116,702
102,324
89,117
77,069
66,138
56,248
47,32
39,285
32,081
25,641
19,879
14,685
9,916
5,437
1,146
−3,04
−7,178
−11,313
−15,479
−19,688
−23,927
−28,16
−32,354
−36,484
−40,535
−44,484
−48,293
−51,909
−55,257
−58,28
−60,943
−63,219
−65,097
−66,57
−67,637
−68,311
−68,623
−68,61
−68,307
−67,741
−66,938
−65,926
−64,741
−63,428
−62,034
−60,598
−59,148
−57,712
−56,309
−54,958
−53,674
−52,464
−51,328
−50,266
−49,279
−48,371
−47,546
−46,806
−46,148
−45,569
−45,064
−44,632
−44,269
−43,971
−43,736
−43,557
−43,433
−43,361
−43,338
−43,362
−43,427
−43,53
−43,662
−43,82
−43,996
−44,187
−44,385
−44,586
−44,785
−44,977
−45,161
−45,332
−45,489
−45,629
−45,75
−45,852
−45,935
−45,997
−46,039
−46,063
−46,07
−46,062
−46,04
−46,007
−45,965
−45,917
−45,866
−45,815
−45,768
−45,727
−45,695
−45,677
−45,676
−45,694
−45,735
−45,802
−45,896
−46,021
−46,178
−46,369
−46,596
−46,859
−47,159
−47,495
−47,868
−48,277
−48,721
−49,199
−49,708
−50,247
−50,814
−51,406
−52,02
−52,654
−53,304
−53,968
−54,642
−55,323
−56,008
−56,694
−57,376
−58,054
−58,722
−59,38
−60,023
−60,65
−61,259
−61,848
−62,416
−62,961
−63,483
−63,982
−64,456
−64,906
−65,333
−65,736
−66,117
−66,476
−66,815
−67,135
−67,437
−67,725
−67,998
−68,26
−68,513
−68,758
−68,998
−69,235
−69,471
−69,708
−69,949
−70,195
−70,448
−70,71
−70,983
−71,269
−71,567
−71,881
−72,209
−72,553
−72,913
−73,289
−73,679
−74,085
−74,504
−74,937
−75,382
−75,838
−76,304
−76,777
−77,258
−77,744
−78,232
−78,723
−79,213
−79,7
−80,184
−80,662
−81,132
−81,593
−82,043
−82,481
−82,904
−83,311
−83,701
−84,073
−84,424
−84,754
−85,063
−85,349
−85,611
−85,851
−86,068
−86,262
−86,433
−86,583
−86,711
−86,819
−86,908
−86,979
−87,033
−87,071
−87,094
−87,105
−87,104
−87,093
−87,073
−87,047
−87,015
−86,978
−86,938
−86,897
−86,855
−86,814
−86,776
−86,741
−86,711
−86,687
−86,67
−86,662
−86,662
−86,672
−86,691
−86,721
−86,762
−86,813
−86,874
−86,946
−87,028
−87,119
−87,219
−87,328
−87,445
−87,569
−87,7
−87,837
−87,979
−88,126
−88,277
−88,433
−88,591
−88,753
−88,917
−89,084
−89,252
−89,421
−89,591
−89,762
−89,932
−90,101
−90,27
−90,437
−90,602
−90,766
−90,927
−91,086
−91,242
−91,395
−91,545
−91,693
−91,837
−91,979
−92,117
−92,252
−92,382
−92,509
−92,63
−92,745
−92,852
−92,951
−93,04
−93,116
−93,178
−93,224
−93,251
−93,258
−93,241
−93,198
−93,128
−93,025
−92,889
−92,716
−92,501
−92,243
−91,938
−91,583
−91,174
−90,709
−90,185
−89,597
−88,943
−88,221
−87,426
−86,556
−85,608
−84,58
−83,47
−82,276
−80,998
−79,636
−78,188
−76,657
−75,044
−73,35
−71,578
−69,731
−67,813
−65,827
−63,779
−61,676
−59,524
−57,332
−55,107
−52,861
−50,606
−48,353
−46,118
−43,915
−41,761
−39,672
−37,665
−35,759
−33,97
−32,314
−30,807
−29,464
−28,301
−27,332
−26,571
−26,031
−25,724
−25,656
−25,832
−26,25
−26,908
−27,8
−28,921
−30,271
−31,848
−33,647
−35,666
−37,907
−40,361
−43,021
−45,866
−48,857
−51,958
−55,139
−58,37
−61,641
−64,934
−68,213
−71,442
−74,574
−77,557
−80,366
−82,935
−85,164
−87,022
−88,521
−89,76
−90,964
−92,299
−93,855
−95,78
−98,227
−101,263
−104,902
−108,875
−112,673
−115,943
−118,425
−119,885
−120,141
−118,918
−116,011
−111,713
−106,653
−101,369
−96,427
−92,244
−89,232
−88,228
−90,103
−95,269
−103,712
−115,191
−128,677
−142,479
−154,66
−162,465
−164,473
−161,208
−152,771
−138,685
−114,631
−73,028
−8,175
83,275
198,334
329,784
472,248
618,643
761,227
889,801
987,118
1038,068
1036,616
986,562
902,893
803,494
697,122
584,168
462,237
329,305
193,177
70,03
−28,353
−95,634
−134,549
−156,805
−170,416
−178,923
−182,556
−177,676
−163,787
−143,538
−120,137
−97,413
−77,447
−60,988
−48,638
−40,522
−36,636
−36,648
−39,657
−44,774
−51,266
−58,162
−64,561
−69,65
−72,6
−73,155
−71,54
−68,035
−63,015
−56,986
−50,379
−43,707
−37,571
−32,203
−27,564
−23,561
−19,981
−16,643
−13,465
−10,293
−6,935
−3,341
0,469
4,426
8,385
12,242
15,93
19,359
22,459
25,188
27,507
29,414
30,945
32,154
33,13
33,978
34,78
35,608
36,528
37,59
38,851
40,361
42,15
44,244
46,658
49,401
52,485
55,919
59,685
63,754
68,069
72,564
77,193
81,929
86,753
91,658
96,638
101,691
106,829
112,078
117,455
122,985
128,687
134,575
140,667
146,986
153,556
160,402
167,532
174,938
182,596
190,481
198,564
206,819
215,22
223,728
232,305
240,914
249,513
258,068
266,553
274,938
283,204
291,347
299,373
307,315
315,229
323,159
331,143
339,204
347,344
355,564
363,859
372,21
380,601
389,005
397,384
405,702
413,908
421,911
429,6
436,823
443,386
449,105
453,808
457,334
459,562
460,388
459,719
457,493
453,653
448,151
440,942
431,978
421,232
408,724
394,522
378,745
361,577
343,212
323,853
303,717
282,993
261,855
240,477
219,013
197,618
176,459
155,717
135,597
116,301
98,003
80,83
64,858
50,114
36,59
24,262
13,077
2,987
−6,051
−14,088
−21,17
−27,352
−32,706
−37,337
−41,377
−44,976
−48,285
−51,426
−54,484
−57,519
−60,565
−63,638
−66,739
−69,861
−72,995
−76,133
−79,27
−82,398
−85,506
−88,56
−91,512
−94,297
−96,844
−99,099
−101,032
−102,624
−103,871
−104,782
−105,373
−105,669
−105,704
−105,507
−105,103
−104,515
−103,762
−102,872
−101,878
−100,819
−99,735
−98,66
−97,618
−96,627
−95,702
−94,849
−94,075
−93,376
−92,746
−92,18
−91,674
−91,229
−90,844
−90,518
−90,247
−90,028
−89,854
−89,724
−89,632
−89,575
−89,551
−89,555
−89,587
−89,643
−89,724
−89,827
−89,95
−90,09
−90,243
−90,406
−90,575
−90,749
−90,923
−91,095
−91,263
−91,426
−91,583
−91,734
−91,878
−92,017
−92,15
−92,279
−92,403
−92,526
−92,646
−92,766
−92,887
−93,008
−93,13
−93,255
−93,383
−93,514
−93,648
−93,788
−93,932
−94,083
−94,24
−94,404
−94,576
−94,757
−94,946
−95,145
−95,354
−95,573
−95,803
−96,043
−96,294
−96,555
−96,825
−97,104
−97,39
−97,682
−97,979
−98,278
−98,578
−98,878
−99,176
−99,47
−99,759
−100,042
−100,317
−100,583
−100,839
−101,086
−101,321
−101,544
−101,756
−101,955
−102,141
−102,313
−102,473
−102,618
−102,75
−102,867
−102,971
−103,061
−103,137
−103,2
−103,25
−103,286
−103,31
−103,322
−103,322
−103,312
−103,293
−103,264
−103,229
−103,187
−103,14
−103,089
−103,035
−102,98
−102,923
−102,867
−102,812
−102,758
−102,707
−102,658
−102,614
−102,573
−102,537
−102,507
−102,482
−102,462
−102,45
−102,444
−102,444
−102,452
−102,468
−102,492
−102,524
−102,565
−102,616
−102,677
−102,747
−102,829
−102,922
−103,027
−103,143
−103,271
−103,411
−103,563
−103,728
−103,905
−104,095
−104,297
−104,512
−104,739
−104,978
−105,229
−105,491
−105,765
−106,049
−106,342
−106,645
−106,956
−107,275
−107,6
−107,931
−108,267
−108,606
−108,948
−109,289
−109,63
−109,967
−110,299
−110,624
−110,94
−111,244
−111,535
−111,809
−112,065
−112,3
−112,511
−112,698
−112,856
−112,985
−113,081
−113,144
−113,171
−113,162
−113,115
−113,029
−112,904
−112,739
−112,534
−112,289
−112,004
−111,68
−111,317
−110,917
−110,479
−110,007
−109,501
−108,963
−108,395
−107,8
−107,18
−106,539
−105,878
−105,201
−104,511
−103,812
−103,107
−102,401
−101,696
−100,998
−100,309
−99,635
−98,978
−98,342
−97,732
−97,15
−96,599
−96,082
−95,602
−95,16
−94,758
−94,398
−94,081
−93,808
−93,58
−93,395
−93,254
−93,157
−93,102
−93,089
−93,115
−93,18
−93,282
−93,418
−93,587
−93,786
−94,012
−94,262
−94,533
−94,821
−95,121
−95,431
−95,744
−96,056
−96,363
−96,658
−96,938
−97,198
−97,431
−97,634
−97,802
−97,929
−98,013
−98,047
−98,03
−97,957
−97,825
−97,632
−97,376
−97,053
−96,663
−96,203
−95,672
−95,066
−94,385
−93,625
−92,783
−91,86
−90,851
−89,758
−88,579
−87,315
−85,967
−84,538
−83,03
−81,445
−79,786
−78,056
−76,256
−74,391
−72,461
−70,47
−68,419
−66,312
−64,151
−61,94
−59,683
−57,383
−55,041
−52,658
−50,234
−47,778
−45,3
−42,814
−40,336
−37,888
−35,494
−33,187
−30,998
−28,956
−27,088
−25,417
−23,959
−22,731
−21,748
−21,025
−20,567
−20,367
−20,407
−20,664
−21,108
−21,707
−22,414
−23,168
−23,911
−24,596
−25,178
−25,633
−25,94
−26,084
−26,074
−25,927
−25,673
−25,36
−25,041
−24,756
−24,575
−24,575
−24,768
−25,214
−25,959
−27,002
−28,435
−30,345
−32,673
−35,37
−38,51
−42,063
−46,027
−50,469
−55,168
−59,968
−65,027
−70,422
−76,076
−82,009
−88,123
−94,184
−100,29
−106,29
−111,559
−115,559
−117,868
−118,014
−115,703
−110,852
−103,319
−93,476
−82,344
−71,023
−60,663
−52,511
−47,869
−47,829
−53,159
−64,011
−79,735
−99,223
−121,143
−142,953
−160,739
−171,012
−170,424
−157,954
−135,526
−102,819
−58,45
1,012
81,977
185,528
309,086
447,413
589,872
727,917
852,917
954,073
1023,462
1053,862
1042,721
995,375
920,793
828,902
726,737
615,416
492,371
357,829
216,995
81,169
−34,324
−120,023
−174,293
−202,966
−216,34
−220,221
−215,538
−199,912
−172,207
−137,084
−101,667
−73,784
−56,833
−48,287
−44,931
−42,9
−40,845
−40,442
−42,053
−45,782
−50,71
−54,539
−56,059
−54,705
−50,394
−43,927
−36,107
−27,562
−19,085
−11,327
−4,818
−0,095
2,67
3,595
2,904
0,956
−1,878
−5,267
−8,857
−12,319
−15,464
−18,169
−20,352
−21,956
−22,896
−23,118
−22,625
−21,444
−19,618
−17,184
−14,178
−10,662
−6,72
−2,44
2,093
6,824
11,715
16,717
21,772
26,809
31,745
36,531
41,144
45,566
49,792
53,823
57,665
61,349
64,916
68,404
71,846
75,269
78,69
82,139
85,649
89,259
93,013
96,946
101,085
105,459
110,099
115,034
120,288
125,872
131,784
138,027
144,595
151,483
158,676
166,145
173,863
181,803
189,939
198,257
206,734
215,345
224,06
232,841
241,655
250,483
259,304
268,104
276,884
285,652
294,438
303,302
312,289
321,435
330,762
340,26
349,918
359,725
369,653
379,679
389,769
399,872
409,941
419,925
429,734
439,257
448,349
456,804
464,435
471,068
476,535
480,721
483,527
484,851
484,63
482,815
479,358
474,232
467,399
458,814
448,489
436,482
422,895
407,915
391,728
374,52
356,501
337,841
318,701
299,259
279,658
260,026
240,514
221,273
202,476
184,34
167,024
150,642
135,27
120,913
107,566
95,215
83,811
73,31
63,672
54,838
46,768
39,436
32,781
26,727
21,167
15,943
10,934
6,056
1,239
−3,546
−8,317
−13,094
−17,862
−22,596
−27,276
−31,878
−36,389
−40,812
−45,124
−49,292
−53,267
−56,971
−60,348
−63,366
−65,999
−68,238
−70,083
−71,537
−72,62
−73,369
−73,817
−73,992
−73,921
−73,619
−73,111
−72,431
−71,614
−70,705
−69,738
−68,74
−67,733
−66,739
−65,77
−64,842
−63,96
−63,12
−62,323
−61,571
−60,867
−60,216
−59,622
−59,084
−58,601
−58,173
−57,799
−57,48
−57,214
−56,999
−56,835
−56,721
−56,655
−56,639
−56,671
−56,749
−56,87
−57,029
−57,225
−57,453
−57,709
−57,99
−58,293
−58,613
−58,948
−59,295
−59,653
−60,018
−60,388
−60,762
−61,137
−61,514
−61,89
−62,264
−62,635
−63,002
−63,365
−63,722
−64,074
−64,418
−64,756
−65,087
−65,412
−65,731
−66,045
−66,354
−66,66
−66,964
−67,267
−67,57
−67,875
−68,181
−68,492
−68,806
−69,126
−69,452
−69,784
−70,123
−70,468
−70,819
−71,177
−71,54
−71,908
−72,28
−72,656
−73,034
−73,414
−73,796
−74,178
−74,561
−74,943
−75,324
−75,703
−76,08
−76,454
−76,823
−77,187
−77,546
−77,898
−78,242
−78,578
−78,904
−79,221
−79,527
−79,821
−80,105
−80,376
−80,635
−80,882
−81,118
−81,343
−81,556
−81,761
−81,956
−82,144
−82,325
−82,5
−82,671
−82,838
−83,003
−83,166
−83,328
−83,489
−83,651
−83,814
−83,977
−84,142
−84,309
−84,478
−84,649
−84,822
−84,999
−85,178
−85,36
−85,545
−85,733
−85,925
−86,119
−86,317
−86,517
−86,72
−86,926
−87,133
−87,341
−87,55
−87,758
−87,966
−88,171
−88,374
−88,574
−88,769
−88,96
−89,147
−89,327
−89,503
−89,674
−89,839
−90
−90,156
−90,308
−90,457
−90,603
−90,746
−90,889
−91,03
−91,171
−91,312
−91,454
−91,597
−91,742
−91,888
−92,037
−92,188
−92,341
−92,497
−92,656
−92,818
−92,984
−93,153
−93,326
−93,502
−93,683
−93,867
−94,055
−94,247
−94,442
−94,639
−94,839
−95,04
−95,241
−95,443
−95,644
−95,843
−96,038
−96,23
−96,418
−96,599
−96,774
−96,941
−97,101
−97,252
−97,395
−97,53
−97,655
−97,773
−97,883
−97,985
−98,08
−98,168
−98,251
−98,328
−98,401
−98,47
−98,536
−98,601
−98,664
−98,727
−98,791
−98,857
−98,926
−98,998
−99,075
−99,159
−99,25
−99,349
−99,458
−99,578
−99,709
−99,854
−100,013
−100,186
−100,375
−100,58
−100,802
−101,04
−101,295
−101,566
−101,852
−102,154
−102,47
−102,799
−103,14
−103,491
−103,851
−104,218
−104,591
−104,967
−105,346
−105,724
−106,101
−106,474
−106,843
−107,204
−107,557
−107,898
−108,227
−108,54
−108,836
−109,112
−109,366
−109,595
−109,797
−109,969
−110,109
−110,214
−110,281
−110,309
−110,294
−110,236
−110,132
−109,98
−109,78
−109,53
−109,23
−108,879
−108,477
−108,023
−107,517
−106,958
−106,346
−105,68
−104,959
−104,183
−103,348
−102,456
−101,505
−100,495
−99,425
−98,296
−97,108
−95,864
−94,565
−93,213
−91,81
−90,357
−88,855
−87,307
−85,713
−84,075
−82,394
−80,67
−78,905
−77,102
−75,264
−73,391
−71,482
−69,535
−67,551
−65,536
−63,5
−61,454
−59,414
−57,398
−55,434
−53,553
−51,782
−50,148
−48,67
−47,363
−46,247
−45,338
−44,648
−44,193
−43,98
−44,001
−44,249
−44,707
−45,34
−46,107
−46,954
−47,813
−48,634
−49,377
−50,011
−50,524
−50,897
−51,121
−51,212
−51,179
−51,04
−50,824
−50,548
−50,244
−49,982
−49,831
−49,881
−50,224
−50,91
−51,968
−53,413
−55,236
−57,44
−59,99
−62,781
−65,758
−68,912
−72,278
−75,999
−80,158
−84,7
−89,628
−94,98
−100,674
−106,641
−112,694
−118,351
−123,285
−127,384
−130,445
−132,383
−133,23
−132,798
−131,064
−128,462
−125,253
−121,628
−118,039
−114,638
−111,546
−109,604
−109,614
−111,957
−117,281
−125,252
−134,292
−143,533
−151,706
−157,852
−162,684
−164,928
−162,113
−150,334
−122,6
−74,245
−2,021
95,474
214,993
353,586
505,335
659,909
805,768
927,535
1011,512
1050,897
1045,26
1002,433
934,577
851,343
758,023
653,851
533,9
397,54
250,6
106,069
−17,89
−109,88
−167,276
−195,758
−208,136
−212,682
−212,168
−206,263
−191,588
−168,166
−139,463
−109,195
−81,165
−57,74
−39,621
−27,098
−20,18
−18,303
−20,428
−25,436
−32,28
−39,736
−46,722
−52,21
−55,149
−55,172
−52,494
−47,48
−40,657
−32,715
−24,303
−16,165
−9,121
−3,55
0,507
3,149
4,646
5,294
5,353
5,135
4,974
5,027
5,32
5,838
6,513
7,318
8,276
9,391
10,655
12,095
13,761
15,682
17,882
20,349
23,036
25,917
28,984
32,232
35,668
39,295
43,103
47,083
51,227
55,511
59,903
64,359
68,823
73,259
77,651
82
86,322
90,632
94,941
99,265
103,627
108,045
112,539
117,126
121,818
126,635
131,608
136,771
142,169
147,841
153,813
160,101
166,714
173,65
180,905
188,46
196,285
204,345
212,604
221,033
229,606
238,301
247,09
255,943
264,822
273,684
282,491
291,211
299,819
308,298
316,643
324,858
332,968
341,019
349,05
357,097
365,174
373,272
381,372
389,446
397,461
405,393
413,208
420,857
428,286
435,43
442,21
448,541
454,302
459,335
463,479
466,568
468,471
469,103
468,4
466,326
462,856
457,963
451,637
443,889
434,732
424,193
412,299
399,073
384,588
368,976
352,395
335,035
317,065
298,612
279,792
260,705
241,446
222,122
202,833
183,664
164,714
146,099
127,952
110,438
93,695
77,795
62,774
48,627
35,347
22,953
11,46
0,874
−8,801
−17,576
−25,466
−32,477
−38,633
−44
−48,67
−52,784
−56,481
−59,856
−62,973
−65,872
−68,582
−71,141
−73,582
−75,922
−78,168
−80,333
−82,425
−84,469
−86,478
−88,44
−90,324
−92,071
−93,614
−94,913
−95,948
−96,707
−97,194
−97,409
−97,364
−97,082
−96,598
−95,936
−95,12
−94,163
−93,077
−91,887
−90,622
−89,318
−88,014
−86,74
−85,519
−84,368
−83,302
−82,329
−81,454
−80,673
−79,978
−79,363
−78,825
−78,362
−77,973
−77,656
−77,406
−77,217
−77,085
−77,003
−76,967
−76,971
−77,01
−77,08
−77,176
−77,296
−77,437
−77,597
−77,773
−77,961
−78,158
−78,359
−78,562
−78,763
−78,96
−79,149
−79,329
−79,498
−79,656
−79,801
−79,934
−80,056
−80,166
−80,267
−80,359
−80,444
−80,524
−80,599
−80,672
−80,744
−80,816
−80,89
−80,967
−81,049
−81,136
−81,231
−81,334
−81,446
−81,569
−81,704
−81,851
−82,01
−82,182
−82,367
−82,565
−82,776
−82,999
−83,235
−83,482
−83,741
−84,009
−84,286
−84,571
−84,863
−85,159
−85,459
−85,762
−86,064
−86,366
−86,665
−86,96
−87,25
−87,534
−87,811
−88,081
−88,341
−88,593
−88,835
−89,067
−89,29
−89,502
−89,705
−89,898
−90,081
−90,256
−90,423
−90,583
−90,737
−90,885
−91,029
−91,169
−91,307
−91,443
−91,579
−91,715
−91,852
−91,99
−92,132
−92,276
−92,425
−92,578
−92,737
−92,9
−93,068
−93,242
−93,421
−93,604
−93,79
−93,981
−94,173
−94,368
−94,563
−94,758
−94,953
−95,146
−95,335
−95,52
−95,7
−95,873
−96,038
−96,194
−96,34
−96,475
−96,599
−96,709
−96,807
−96,891
−96,961
−97,017
−97,058
−97,084
−97,095
−97,092
−97,075
−97,044
−97
−96,945
−96,878
−96,801
−96,716
−96,624
−96,526
−96,423
−96,317
−96,209
−96,101
−95,993
−95,888
−95,786
−95,689
−95,598
−95,513
−95,437
−95,369
−95,31
−95,26
−95,221
−95,192
−95,173
−95,165
−95,168
−95,18
−95,203
−95,236
−95,277
−95,326
−95,383
−95,447
−95,515
−95,587
−95,663
−95,739
−95,816
−95,892
−95,965
−96,035
−96,1
−96,159
−96,212
−96,257
−96,293
−96,321
−96,338
−96,346
−96,343
−96,33
−96,307
−96,274
−96,232
−96,18
−96,121
−96,054
−95,98
−95,901
−95,817
−95,731
−95,643
−95,555
−95,47
−95,388
−95,312
−95,243
−95,184
−95,136
−95,101
−95,079
−95,073
−95,084
−95,112
−95,159
−95,225
−95,311
−95,418
−95,545
−95,693
−95,861
−96,05
−96,257
−96,482
−96,724
−96,982
−97,253
−97,535
−97,827
−98,126
−98,428
−98,731
−99,032
−99,326
−99,609
−99,877
−100,126
−100,351
−100,549
−100,716
−100,846
−100,936
−100,983
−100,984
−100,933
−100,829
−100,668
−100,446
−100,16
−99,807
−99,385
−98,889
−98,317
−97,666
−96,935
−96,12
−95,223
−94,24
−93,173
−92,023
−90,791
−89,479
−88,087
−86,618
−85,073
−83,454
−81,766
−80,009
−78,186
−76,3
−74,353
−72,351
−70,3
−68,2
−66,052
−63,856
−61,614
−59,335
−57,03
−54,712
−52,401
−50,115
−47,883
−45,741
−43,722
−41,849
−40,146
−38,623
−37,3
−36,199
−35,338
−34,733
−34,392
−34,311
−34,48
−34,89
−35,509
−36,291
−37,175
−38,085
−38,96
−39,762
−40,462
−41,045
−41,497
−41,798
−41,949
−41,965
−41,862
−41,662
−41,381
−41,036
−40,681
−40,401
−40,301
−40,489
−41,034
−41,963
−43,287
−45,001
−47,107
−49,582
−52,335
−55,296
−58,444
−61,83
−65,607
−69,899
−74,701
−79,995
−85,798
−92,036
−98,622
−105,334
−111,651
−117,16
−121,669
−124,973
−126,994
−127,744
−127,076
−125,134
−122,544
−119,649
−116,692
−114,074
−111,775
−110,516
−111,386
−114,129
−118,691
−123,872
−128,251
−132,981
−137,749
−142,787
−148,35
−151,755
−152,807
−150,189
−140,281
−118,708
−77,581
−11,109
83,062
202,477
339,958
489,306
642,228
789,691
921,739
1023,363
1082,663
1094,401
1060,483
993,003
905,595
806,677
698,344
575,73
436,092
284,151
132,787
1,021
−98,44
−162,239
−195,833
−212,365
−220,563
−223,481
−221,135
−210,182
−190,443
−165,195
−138,02
−112,597
−90,996
−73,693
−60,648
−51,546
−46,011
−43,259
−42,274
−42,337
−42,72
−42,742
−41,967
−39,85
−35,92
−30,296
−23,394
−15,605
−7,457
0,558
8,066
14,539
19,459
22,674
24,262
24,422
23,481
21,728
19,391
16,761
14,149
11,765
9,748
8,166
7,026
6,354
6,2
6,613
7,604
9,16
11,251
13,828
16,855
20,291
24,085
28,188
32,552
37,127
41,867
46,739
51,703
56,714
61,723
66,661
71,482
76,165
80,704
85,11
89,399
93,583
97,686
101,738
105,77
109,81
113,884
118,009
122,211
126,518
130,967
135,605
140,471
145,598
151,013
156,73
162,762
169,114
175,783
182,752
189,999
197,493
205,206
213,115
221,194
229,423
237,775
246,218
254,719
263,239
271,744
280,211
288,612
296,924
305,139
313,266
321,331
329,386
337,477
345,637
353,891
362,249
370,712
379,277
387,929
396,641
405,381
414,108
422,781
431,364
439,787
447,947
455,713
462,908
469,356
474,894
479,353
482,585
484,465
484,884
483,765
481,064
476,728
470,719
462,994
453,5
442,23
429,217
414,528
398,292
380,663
361,808
341,926
321,225
299,892
278,102
256,009
233,745
211,47
189,351
167,567
146,329
125,823
106,215
87,661
70,264
54,08
39,142
25,433
12,911
1,548
−8,691
−17,834
−25,906
−32,965
−39,087
−44,36
−48,911
−52,877
−56,397
−59,627
−62,687
−65,658
−68,603
−71,547
−74,495
−77,46
−80,448
−83,459
−86,494
−89,545
−92,594
−95,624
−98,595
−101,453
−104,136
−106,569
−108,695
−110,488
−111,93
−113,024
−113,785
−114,226
−114,371
−114,252
−113,896
−113,33
−112,58
−111,665
−110,615
−109,465
−108,255
−107,027
−105,817
−104,646
−103,535
−102,496
−101,534
−100,657
−99,862
−99,141
−98,491
−97,91
−97,396
−96,95
−96,572
−96,257
−96,001
−95,799
−95,645
−95,538
−95,472
−95,444
−95,45
−95,488
−95,556
−95,654
−95,78
−95,931
−96,104
−96,295
−96,501
−96,72
−96,947
−97,181
−97,417
−97,655
−97,892
−98,127
−98,361
−98,592
−98,819
−99,044
−99,265
−99,484
−99,7
−99,913
−100,125
−100,334
−100,542
−100,75
−100,956
−101,163
−101,371
−101,58
−101,791
−102,005
−102,222
−102,443
−102,668
−102,897
−103,132
−103,372
−103,618
−103,87
−104,128
−104,392
−104,663
−104,94
−105,222
−105,509
−105,799
−106,092
−106,387
−106,682
−106,976
−107,269
−107,557
−107,841
−108,12
−108,391
−108,654
−108,908
−109,152
−109,384
−109,605
−109,814
−110,009
−110,192
−110,36
−110,515
−110,655
−110,782
−110,894
−110,991
−111,074
−111,142
−111,196
−111,236
−111,263
−111,275
−111,275
−111,263
−111,239
−111,204
−111,158
−111,104
−111,042
−110,972
−110,895
−110,814
−110,728
−110,639
−110,547
−110,454
−110,361
−110,266
−110,172
−110,079
−109,986
−109,895
−109,804
−109,715
−109,628
−109,542
−109,458
−109,376
−109,296
−109,218
−109,142
−109,069
−108,998
−108,93
−108,864
−108,802
−108,742
−108,686
−108,633
−108,584
−108,537
−108,494
−108,454
−108,417
−108,383
−108,352
−108,324
−108,298
−108,276
−108,256
−108,24
−108,227
−108,217
−108,211
−108,209
−108,211
−108,218
−108,228
−108,243
−108,262
−108,286
−108,313
−108,344
−108,378
−108,414
−108,453
−108,493
−108,534
−108,574
−108,613
−108,65
−108,685
−108,715
−108,742
−108,763
−108,778
−108,786
−108,787
−108,78
−108,764
−108,738
−108,703
−108,658
−108,601
−108,534
−108,454
−108,363
−108,26
−108,145
−108,017
−107,877
−107,726
−107,562
−107,388
−107,204
−107,01
−106,808
−106,599
−106,384
−106,164
−105,942
−105,718
−105,495
−105,274
−105,056
−104,844
−104,638
−104,441
−104,253
−104,076
−103,911
−103,759
−103,621
−103,496
−103,387
−103,292
−103,213
−103,149
−103,101
−103,068
−103,05
−103,048
−103,061
−103,088
−103,128
−103,18
−103,242
−103,313
−103,391
−103,473
−103,557
−103,641
−103,721
−103,796
−103,861
−103,914
−103,952
−103,972
−103,969
−103,942
−103,887
−103,801
−103,683
−103,529
−103,337
−103,106
−102,834
−102,519
−102,159
−101,751
−101,293
−100,782
−100,215
−99,59
−98,903
−98,153
−97,337
−96,455
−95,507
−94,492
−93,411
−92,267
−91,059
−89,789
−88,456
−87,062
−85,606
−84,089
−82,511
−80,871
−79,17
−77,408
−75,589
−73,713
−71,783
−69,799
−67,757
−65,657
−63,506
−61,312
−59,086
−56,845
−54,605
−52,389
−50,231
−48,162
−46,21
−44,402
−42,75
−41,263
−39,955
−38,837
−37,922
−37,214
−36,7
−36,359
−36,178
−36,138
−36,215
−36,378
−36,564
−36,717
−36,794
−36,764
−36,62
−36,374
−36,029
−35,596
−35,099
−34,582
−34,106
−33,746
−33,542
−33,516
−33,697
−34,126
−34,879
−36,037
−37,642
−39,704
−42,205
−45,096
−48,335
−51,89
−55,665
−59,513
−63,324
−67,017
−70,627
−74,325
−78,221
−82,343
−86,747
−91,494
−96,604
−102,063
−107,604
−112,728
−117,069
−120,353
−122,383
−123,048
−122,167
−119,617
−115,689
−110,972
−105,986
−101,27
−97,219
−94,186
−92,833
−93,885
−97,72
−104,347
−113,691
−124,931
−136,505
−146,722
−153,197
−154,866
−152,546
−146,343
−135,522
−115,519
−78,516
−18,378
69,044
181,695
312,957
456,504
603,633
746,577
876,095
978,643
1042,697
1060,085
1030,98
964,555
872,918
767,019
650,049
521,169
381,138
234,749
95,693
−21,05
−107,338
−162,227
−193,593
−212,241
−223,94
−229,996
−228,646
−217,507
−197,445
−171,582
−143,523
−116,234
−91,191
−69,436
−51,601
−37,87
−28,4
−22,711
−19,919
−19,557
−21,066
−23,395
−25,592
−26,7
−25,822
−22,847
−18,117
−11,875
−4,541
3,246
10,908
17,749
23,071
26,677
28,675
29,241
28,701
27,388
25,543
23,495
21,597
20,035
18,923
18,323
18,213
18,614
19,588
21,143
23,261
25,919
29,051
32,602
36,53
40,781
45,311
50,082
55,052
60,19
65,473
70,876
76,375
81,936
87,499
93,022
98,477
103,849
109,148
114,392
119,585
124,731
129,834
134,886
139,88
144,803
149,625
154,311
158,839
163,199
167,405
171,479
175,447
179,343
183,201
187,046
190,928
194,9
199,018
203,348
207,948
212,863
218,156
223,899
230,152
236,967
244,371
252,368
260,944
270,065
279,69
289,774
300,246
311,027
322,037
333,186
344,412
355,688
366,971
378,202
389,327
400,275
410,981
421,402
431,49
441,207
450,52
459,393
467,808
475,755
483,213
490,154
496,508
502,151
506,958
510,815
513,601
515,236
515,659
514,806
512,64
509,133
504,256
497,991
490,315
481,194
470,607
458,553
445,075
430,286
414,33
397,367
379,582
361,129
342,14
322,754
303,087
283,252
263,371
243,571
223,979
204,764
186,103
168,166
151,111
135,027
119,958
105,922
92,901
80,886
69,875
59,855
50,815
42,74
35,599
29,356
23,96
19,319
15,301
11,768
8,567
5,588
2,76
0,03
−2,63
−5,243
−7,831
−10,406
−12,971
−15,535
−18,101
−20,672
−23,251
−25,809
−28,295
−30,647
−32,788
−34,665
−36,253
−37,531
−38,498
−39,156
−39,517
−39,601
−39,436
−39,048
−38,453
−37,671
−36,712
−35,6
−34,367
−33,048
−31,685
−30,307
−28,937
−27,593
−26,288
−25,032
−23,83
−22,68
−21,576
−20,513
−19,49
−18,509
−17,573
−16,684
−15,84
−15,041
−14,284
−13,573
−12,912
−12,303
−11,746
−11,243
−10,792
−10,399
−10,07
−9,814
−9,634
−9,533
−9,512
−9,574
−9,725
−9,968
−10,303
−10,726
−11,227
−11,798
−12,44
−13,154
−13,947
−14,816
−15,749
−16,724
−17,72
−18,728
−19,755
−20,808
−21,885
−22,973
−24,043
−25,101
−26,203
−27,361
−28,53
−29,585
−30,366
−30,834
−31,096
−31,281
−31,437
−31,606
−31,881
−32,585
−34,181
−36,877
−40,554
−44,817
−49,252
−53,609
−57,709
−61,059
−62,943
−62,911
−60,866
−57,309
−53,015
−48,425
−43,781
−39,542
−36,319
−34,637
−34,863
−36,656
−39,241
−42,175
−45,227
−48,148
−50,707
−52,577
−53,377
−53,224
−52,595
−51,78
−50,965
−50,241
−49,582
−49,09
−48,976
−49,254
−49,786
−50,479
−51,248
−52,085
−53,072
−54,228
−55,522
−56,948
−58,517
−60,244
−62,157
−64,262
−66,538
−68,971
−71,55
−74,267
−77,126
−80,123
−83,25
−86,499
−89,859
−93,318
−96,87
−100,508
−104,226
−108,014
−111,862
−115,759
−119,695
−123,662
−127,65
−131,647
−135,64
−139,614
−143,557
−147,457
−151,303
−155,082
−158,783
−162,394
−165,905
−169,305
−172,584
−175,734
−178,747
−181,613
−184,327
−186,883
−189,275
−191,499
−193,553
−195,434
−197,14
−198,67
−200,026
−201,208
−202,219
−203,062
−203,742
−204,262
−204,63
−204,852
−204,936
−204,889
−204,72
−204,438
−204,055
−203,579
−203,022
−202,396
−201,71
−200,976
−200,206
−199,41
−198,599
−197,783
−196,972
−196,176
−195,402
−194,659
−193,957
−193,3
−192,697
−192,153
−191,674
−191,263
−190,925
−190,662
−190,475
−190,364
−190,33
−190,371
−190,485
−190,669
−190,919
−191,231
−191,6
−192,019
−192,483
−192,983
−193,512
−194,062
−194,624
−195,19
−195,751
−196,298
−196,822
−197,316
−197,772
−198,182
−198,538
−198,834
−199,062
−199,213
−199,283
−199,263
−199,147
−198,928
−198,602
−198,165
−197,613
−196,945
−196,159
−195,255
−194,235
−193,102
−191,859
−190,505
−189,044
−187,477
−185,808
−184,039
−182,175
−180,218
−178,172
−176,044
−173,842
−171,574
−169,249
−166,869
−164,436
−161,956
−159,44
−156,902
−154,358
−151,822
−149,316
−146,867
−144,513
−142,291
−140,228
−138,34
−136,632
−135,112
−133,789
−132,671
−131,764
−131,061
−130,548
−130,214
−130,052
−130,055
−130,2
−130,446
−130,722
−130,97
−131,154
−131,261
−131,297
−131,268
−131,178
−131,044
−130,901
−130,807
−130,812
−130,943
−131,202
−131,589
−132,116
−132,825
−133,788
−135,059
−136,661
−138,592
−140,812
−143,287
−145,972
−148,792
−151,649
−154,411
−156,933
−159,18
−161,211
−163,129
−165,099
−167,232
−169,531
−172,094
−175,092
−178,495
−182,17
−185,811
−188,842
−190,901
−191,845
−191,346
−189,038
−184,839
−178,774
−171,254
−163,199
−155,216
−147,808
−141,826
−138,037
−137,102
−139,626
−145,571
−154,466
−165,3
−175,764
−183,396
−185,882
−182,637
−175,855
−166,242
−151,738
−126,22
−79,638
−6,153
93,442
212,533
339,937
467,824
592,013
707,766
808,554
882,245
915,765
903,952
850,481
767,496
669,93
565,13
453,301
333,101
204,311
74,83
−40,818
−132,414
−194,942
−230,86
−249,913
−258,572
−259,593
−253,584
−238,41
−214,611
−185,518
−154,609
−125,341
−99,945
−79,283
−63,724
−53,247
−47,288
−44,74
−44,386
−45,272
−46,417
−46,974
−46,233
−43,476
−38,576
−32,014
−24,378
−16,256
−8,262
−0,873
5,401
9,962
12,591
13,388
12,589
10,576
7,723
4,324
0,729
−2,673
−5,606
−7,857
−9,303
−9,933
−9,744
−8,74
−6,957
−4,435
−1,231
2,582
6,925
11,72
16,883
22,338
28,003
33,795
39,621
45,378
50,99
56,41
61,609
66,578
71,311
75,802
80,062
84,124
88,019
91,781
95,442
99,023
102,556
106,08
109,636
113,272
117,024
120,918
124,979
129,226
133,675
138,345
143,247
148,389
153,782
159,44
165,369
171,577
178,062
184,813
191,816
199,05
206,48
214,078
221,815
229,662
237,604
245,619
253,682
261,765
269,831
277,845
285,785
293,632
301,376
309,016
316,561
324,039
331,507
339,011
346,588
354,253
361,994
369,795
377,641
385,514
393,394
401,254
409,048
416,725
424,229
431,48
438,374
444,765
450,465
455,293
459,085
461,715
463,095
463,146
461,798
458,995
454,696
448,872
441,506
432,576
422,066
410,001
396,452
381,552
365,488
348,454
330,646
312,234
293,364
274,19
254,86
235,508
216,262
197,255
178,631
160,565
143,236
126,778
111,284
96,788
83,284
70,755
59,167
48,491
38,694
29,732
21,566
14,164
7,49
1,487
−3,925
−8,873
−13,487
−17,863
−22,076
−26,165
−30,152
−34,057
−37,883
−41,622
−45,26
−48,781
−52,176
−55,45
−58,598
−61,605
−64,435
−67,03
−69,335
−71,317
−72,956
−74,245
−75,188
−75,789
−76,064
−76,046
−75,771
−75,27
−74,572
−73,694
−72,661
−71,503
−70,257
−68,965
−67,665
−66,383
−65,145
−63,968
−62,869
−61,861
−60,951
−60,136
−59,413
−58,784
−58,248
−57,809
−57,466
−57,217
−57,058
−56,985
−56,993
−57,079
−57,239
−57,469
−57,763
−58,117
−58,527
−58,993
−59,508
−60,069
−60,671
−61,306
−61,969
−62,655
−63,357
−64,068
−64,784
−65,498
−66,207
−66,906
−67,59
−68,257
−68,902
−69,524
−70,12
−70,688
−71,228
−71,737
−72,215
−72,663
−73,08
−73,466
−73,822
−74,149
−74,448
−74,72
−74,967
−75,19
−75,391
−75,573
−75,736
−75,884
−76,017
−76,139
−76,251
−76,355
−76,453
−76,548
−76,642
−76,737
−76,833
−76,933
−77,038
−77,149
−77,267
−77,393
−77,527
−77,67
−77,822
−77,983
−78,154
−78,333
−78,521
−78,717
−78,92
−79,13
−79,345
−79,564
−79,786
−80,011
−80,238
−80,465
−80,692
−80,919
−81,143
−81,366
−81,585
−81,802
−82,014
−82,223
−82,427
−82,626
−82,821
−83,011
−83,196
−83,376
−83,551
−83,722
−83,889
−84,051
−84,209
−84,363
−84,513
−84,66
−84,803
−84,944
−85,083
−85,219
−85,354
−85,488
−85,621
−85,753
−85,884
−86,014
−86,143
−86,269
−86,394
−86,515
−86,633
−86,747
−86,856
−86,96
−87,057
−87,146
−87,226
−87,297
−87,357
−87,407
−87,444
−87,469
−87,482
−87,481
−87,468
−87,442
−87,403
−87,352
−87,29
−87,217
−87,134
−87,041
−86,941
−86,834
−86,722
−86,606
−86,489
−86,372
−86,257
−86,147
−86,044
−85,949
−85,866
−85,795
−85,739
−85,7
−85,68
−85,682
−85,705
−85,754
−85,828
−85,93
−86,061
−86,221
−86,41
−86,629
−86,876
−87,15
−87,451
−87,776
−88,124
−88,491
−88,875
−89,272
−89,681
−90,096
−90,515
−90,932
−91,343
−91,743
−92,128
−92,494
−92,834
−93,146
−93,424
−93,664
−93,863
−94,016
−94,119
−94,168
−94,159
−94,086
−93,946
−93,733
−93,443
−93,072
−92,619
−92,08
−91,453
−90,739
−89,937
−89,05
−88,078
−87,023
−85,887
−84,67
−83,374
−81,999
−80,547
−79,019
−77,416
−75,739
−73,989
−72,174
−70,296
−68,359
−66,366
−64,312
−62,201
−60,041
−57,841
−55,613
−53,372
−51,135
−48,925
−46,777
−44,724
−42,797
−41,018
−39,392
−37,931
−36,643
−35,537
−34,623
−33,896
−33,336
−32,927
−32,659
−32,516
−32,482
−32,518
−32,559
−32,548
−32,438
−32,201
−31,841
−31,362
−30,766
−30,075
−29,32
−28,557
−27,864
−27,301
−26,897
−26,669
−26,636
−26,838
−27,358
−28,272
−29,623
−31,419
−33,636
−36,233
−39,171
−42,395
−45,793
−49,19
−52,438
−55,486
−58,399
−61,363
−64,528
−67,937
−71,628
−75,723
−80,252
−85,081
−89,864
−93,974
−96,852
−98,261
−98,054
−96,011
−92,05
−86,344
−79,398
−72,198
−65,767
−60,671
−57,354
−56,497
−58,731
−64,394
−73,564
−85,674
−99,711
−115,145
−130,8
−143,983
−151,941
−151,791
−141,925
−124,262
−100,628
−70,886
−32,729
21,315
98,635
202,228
331,434
477,406
626,512
765,012
877,905
954,385
989,584
983,388
942,532
877,359
796,891
706,921
608,045
497,005
373,454
242,113
113,488
2,443
−81,558
−135,995
−165,001
−178,911
−184,552
−184,642
−179,682
−167,356
−147,94
−124,323
−99,342
−75,954
−55,99
−39,912
−27,908
−19,987
−15,708
−14,277
−14,883
−16,805
−19,187
−21,288
−22,358
−21,549
−18,584
−13,681
−7,17
0,463
8,633
16,823
24,403
30,673
35,323
38,342
39,861
40,169
39,562
38,295
36,672
35,021
33,537
32,31
31,385
30,77
30,487
30,589
31,118
32,077
33,462
35,269
37,466
40,021
42,892
46,018
49,352
52,864
56,526
60,319
64,229
68,22
72,257
76,305
80,308
84,227
88,044
91,744
95,336
98,838
102,271
105,662
109,047
112,451
115,902
119,422
123,03
126,751
130,615
134,652
138,901
143,395
148,163
153,239
158,647
164,4
170,505
176,96
183,749
190,856
198,259
205,922
213,809
221,882
230,109
238,464
246,927
255,474
264,071
272,665
281,2
289,632
297,934
306,099
314,137
322,064
329,899
337,68
345,46
353,312
361,259
369,229
377,069
384,616
391,802
398,699
405,411
411,919
418,201
424,338
430,553
437,126
444,087
451,064
457,482
462,938
467,147
469,813
470,497
468,624
463,873
456,418
446,772
435,364
422,462
408,286
393,135
377,484
361,72
345,919
329,889
313,465
296,604
279,33
261,689
243,634
225,132
206,302
187,394
168,646
150,247
132,346
115,042
98,458
82,695
67,764
53,641
40,297
27,726
15,951
5
−5,125
−14,434
−22,934
−30,648
−37,606
−43,874
−49,559
−54,764
−59,587
−64,098
−68,329
−72,307
−76,06
−79,612
−82,981
−86,179
−89,204
−92,06
−94,761
−97,311
−99,705
−101,915
−103,891
−105,589
−106,978
−108,039
−108,772
−109,182
−109,273
−109,064
−108,583
−107,862
−106,937
−105,836
−104,581
−103,199
−101,721
−100,184
−98,634
−97,11
−95,64
−94,25
−92,961
−91,79
−90,751
−89,853
−89,094
−88,473
−87,99
−87,645
−87,44
−87,375
−87,445
−87,646
−87,972
−88,416
−88,974
−89,64
−90,405
−91,264
−92,207
−93,228
−94,321
−95,478
−96,69
−97,948
−99,241
−100,56
−101,896
−103,24
−104,581
−105,911
−107,222
−108,507
−109,759
−110,971
−112,139
−113,258
−114,323
−115,331
−116,28
−117,168
−117,993
−118,754
−119,452
−120,086
−120,658
−121,168
−121,619
−122,012
−122,35
−122,637
−122,877
−123,072
−123,229
−123,351
−123,443
−123,511
−123,56
−123,594
−123,618
−123,638
−123,657
−123,681
−123,713
−123,758
−123,819
−123,899
−124
−124,126
−124,277
−124,456
−124,664
−124,902
−125,169
−125,467
−125,795
−126,153
−126,54
−126,956
−127,398
−127,867
−128,359
−128,874
−129,41
−129,963
−130,533
−131,116
−131,711
−132,314
−132,924
−133,538
−134,154
−134,77
−135,385
−135,995
−136,6
−137,199
−137,79
−138,372
−138,946
−139,509
−140,063
−140,607
−141,141
−141,667
−142,184
−142,693
−143,196
−143,692
−144,183
−144,67
−145,154
−145,635
−146,114
−146,592
−147,07
−147,549
−148,029
−148,511
−148,995
−149,481
−149,97
−150,461
−150,954
−151,449
−151,946
−152,443
−152,939
−153,435
−153,928
−154,416
−154,9
−155,376
−155,842
−156,297
−156,739
−157,164
−157,571
−157,958
−158,322
−158,661
−158,973
−159,257
−159,51
−159,732
−159,92
−160,075
−160,195
−160,28
−160,33
−160,346
−160,327
−160,274
−160,189
−160,072
−159,925
−159,749
−159,546
−159,318
−159,067
−158,795
−158,504
−158,198
−157,878
−157,549
−157,212
−156,873
−156,533
−156,196
−155,865
−155,545
−155,238
−154,947
−154,676
−154,427
−154,203
−154,005
−153,837
−153,698
−153,591
−153,514
−153,47
−153,456
−153,474
−153,521
−153,597
−153,7
−153,83
−153,984
−154,161
−154,359
−154,576
−154,809
−155,055
−155,313
−155,578
−155,848
−156,118
−156,387
−156,649
−156,901
−157,139
−157,358
−157,554
−157,722
−157,86
−157,962
−158,024
−158,043
−158,016
−157,939
−157,812
−157,631
−157,395
−157,102
−156,75
−156,338
−155,865
−155,328
−154,724
−154,051
−153,308
−152,492
−151,602
−150,636
−149,593
−148,471
−147,273
−145,997
−144,644
−143,213
−141,702
−140,112
−138,442
−136,693
−134,862
−132,951
−130,957
−128,88
−126,724
−124,487
−122,168
−119,764
−117,267
−114,675
−111,993
−109,224
−106,378
−103,464
−100,5
−97,508
−94,518
−91,559
−88,654
−85,824
−83,083
−80,449
−77,947
−75,596
−73,417
−71,419
−69,602
−67,958
−66,477
−65,132
−63,886
−62,69
−61,48
−60,202
−58,823
−57,309
−55,646
−53,82
−51,816
−49,634
−47,289
−44,804
−42,221
−39,596
−36,986
−34,471
−32,144
−30,099
−28,438
−27,242
−26,567
−26,463
−26,964
−28,082
−29,809
−32,117
−34,947
−38,236
−41,912
−45,865
−49,957
−54,083
−58,192
−62,297
−66,484
−70,816
−75,314
−80,045
−85,15
−90,687
−96,538
−102,393
−107,747
−112,135
−115,311
−117,026
−116,839
−114,422
−109,784
−103,273
−95,678
−87,901
−80,518
−74,155
−69,851
−68,671
−71,402
−78,388
−89,287
−102,872
−117,403
−130,846
−140,26
−143,822
−141,343
−132,361
−116,637
−90,738
−48,071
16,522
106,889
221,124
352,634
495,619
641,51
781,125
904,136
995,044
1041,614
1039,783
993,549
916,296
823,26
722,405
614,719
497,841
370,267
237,948
114,199
11,944
−61,178
−105,367
−128,863
−141,569
−149,357
−153,97
−153,8
−146,673
−133,144
−115,459
−96,351
−78,068
−61,443
−47,01
−35,114
−25,774
−19,131
−14,92
−12,555
−11,831
−12,509
−13,941
−15,565
−16,766
−16,86
−15,747
−13,659
−10,729
−7,235
−3,602
−0,17
2,606
4,22
4,557
3,731
1,908
−0,598
−3,463
−6,439
−9,207
−11,441
−12,979
−13,736
−13,671
−12,829
−11,249
−8,953
−6,011
−2,501
1,508
5,932
10,695
15,719
20,908
26,173
31,428
36,604
41,655
46,544
51,24
55,727
60,001
64,063
67,925
71,6
75,102
78,455
81,686
84,83
87,927
91,017
94,144
97,349
100,663
104,117
107,733
111,531
115,531
119,75
124,206
128,92
133,911
139,194
144,778
150,671
156,87
163,365
170,139
177,163
184,411
191,857
199,48
207,265
215,191
223,237
231,379
239,581
247,814
256,055
264,28
272,471
280,626
288,75
296,866
305,023
313,263
321,618
330,113
338,744
347,495
356,348
365,278
374,258
383,254
392,219
401,103
409,851
418,387
426,613
434,403
441,581
447,968
453,4
457,714
460,799
462,572
462,955
461,89
459,333
455,249
449,619
442,426
433,65
423,28
411,349
397,934
383,18
367,266
350,372
332,689
314,379
295,578
276,433
257,085
237,66
218,285
199,096
180,231
161,867
144,203
127,391
111,537
96,694
82,865
70,046
58,216
47,356
37,446
28,456
20,346
13,086
6,646
0,969
−4,019
−8,436
−12,441
−16,162
−19,69
−23,091
−26,394
−29,625
−32,802
−35,93
−38,999
−41,999
−44,918
−47,751
−50,505
−53,164
−55,702
−58,066
−60,179
−61,986
−63,456
−64,566
−65,315
−65,705
−65,74
−65,442
−64,851
−63,998
−62,915
−61,629
−60,158
−58,528
−56,774
−54,936
−53,059
−51,182
−49,33
−47,529
−45,797
−44,151
−42,603
−41,159
−39,815
−38,569
−37,425
−36,383
−35,45
−34,628
−33,913
−33,306
−32,804
−32,405
−32,107
−31,91
−31,808
−31,799
−31,88
−32,049
−32,304
−32,643
−33,058
−33,547
−34,101
−34,716
−35,384
−36,1
−36,857
−37,647
−38,465
−39,306
−40,164
−41,034
−41,911
−42,79
−43,668
−44,541
−45,404
−46,255
−47,091
−47,908
−48,704
−49,477
−50,224
−50,945
−51,637
−52,301
−52,934
−53,538
−54,113
−54,659
−55,178
−55,671
−56,14
−56,586
−57,013
−57,423
−57,818
−58,202
−58,577
−58,946
−59,312
−59,677
−60,043
−60,414
−60,791
−61,176
−61,57
−61,976
−62,395
−62,828
−63,276
−63,74
−64,22
−64,716
−65,229
−65,759
−66,304
−66,863
−67,437
−68,022
−68,619
−69,223
−69,835
−70,45
−71,067
−71,683
−72,294
−72,898
−73,492
−74,072
−74,635
−75,179
−75,701
−76,198
−76,668
−77,108
−77,517
−77,892
−78,232
−78,537
−78,804
−79,033
−79,223
−79,376
−79,49
−79,566
−79,606
−79,61
−79,58
−79,518
−79,426
−79,306
−79,162
−78,995
−78,809
−78,608
−78,395
−78,173
−77,948
−77,722
−77,5
−77,285
−77,081
−76,891
−76,72
−76,571
−76,445
−76,347
−76,279
−76,242
−76,24
−76,272
−76,342
−76,45
−76,596
−76,781
−77,005
−77,267
−77,568
−77,905
−78,277
−78,683
−79,12
−79,587
−80,08
−80,596
−81,133
−81,687
−82,254
−82,831
−83,413
−83,996
−84,577
−85,151
−85,714
−86,263
−86,793
−87,301
−87,783
−88,237
−88,66
−89,048
−89,4
−89,713
−89,985
−90,216
−90,403
−90,546
−90,645
−90,7
−90,71
−90,676
−90,599
−90,48
−90,321
−90,124
−89,89
−89,622
−89,323
−88,996
−88,645
−88,272
−87,882
−87,478
−87,066
−86,648
−86,23
−85,815
−85,409
−85,014
−84,635
−84,276
−83,941
−83,633
−83,357
−83,114
−82,907
−82,74
−82,614
−82,53
−82,49
−82,495
−82,545
−82,641
−82,782
−82,969
−83,2
−83,475
−83,792
−84,149
−84,545
−84,978
−85,443
−85,939
−86,461
−87,006
−87,57
−88,148
−88,737
−89,332
−89,927
−90,518
−91,1
−91,666
−92,213
−92,734
−93,225
−93,682
−94,099
−94,474
−94,802
−95,08
−95,306
−95,478
−95,592
−95,647
−95,641
−95,572
−95,438
−95,238
−94,969
−94,629
−94,219
−93,737
−93,184
−92,559
−91,863
−91,098
−90,267
−89,371
−88,414
−87,396
−86,321
−85,191
−84,008
−82,778
−81,502
−80,183
−78,824
−77,428
−75,999
−74,542
−73,057
−71,542
−69,993
−68,41
−66,798
−65,166
−63,526
−61,893
−60,282
−58,717
−57,231
−55,852
−54,604
−53,503
−52,558
−51,781
−51,192
−50,812
−50,662
−50,751
−51,073
−51,618
−52,374
−53,314
−54,402
−55,576
−56,759
−57,885
−58,912
−59,814
−60,584
−61,213
−61,681
−61,976
−62,098
−62,062
−61,898
−61,63
−61,274
−60,869
−60,475
−60,181
−60,098
−60,308
−60,858
−61,78
−63,07
−64,717
−66,718
−69,041
−71,631
−74,451
−77,439
−80,536
−83,774
−87,189
−90,84
−94,84
−99,234
−104,045
−109,39
−115,339
−121,83
−128,734
−135,692
−142,199
−147,909
−152,442
−155,349
−156,347
−155,301
−152,26
−147,76
−142,515
−137,157
−132,525
−129,456
−128,637
−130,699
−135,846
−143,733
−153,306
−162,665
−169,582
−171,567
−167,391
−157,22
−140,643
−117,001
−82,56
−31,375
40,158
134,357
248,558
376,326
512,932
651,27
783,134
898,953
983,891
1025,671
1020,248
971,557
892,11
796,481
691,13
575,428
448,025
309,14
168,419
43,603
−53,276
−116,917
−151,132
−168,971
−179,204
−185,188
−187,004
−181,014
−166,779
−147,228
−125,724
−105,683
−88,663
−74,893
−64,367
−56,689
−51,562
−48,638
−47,197
−46,851
−47,395
−48,367
−49,387
−50,082
−49,918
−48,518
−45,883
−42,061
−37,18
−31,6
−25,66
−19,711
−14,255
−9,752
−6,383
−4,159
−2,971
−2,572
−2,741
−3,303
−4,031
−4,703
−5,199
−5,455
−5,451
−5,207
−4,714
−3,943
−2,871
−1,468
0,283
2,379
4,803
7,527
10,515
13,743
17,194
20,854
24,712
28,754
32,965
37,331
41,832
46,434
51,092
55,746
60,353
64,895
69,368
73,783
78,156
82,496
86,822
91,157
95,525
99,946
104,439
109,015
113,693
118,502
123,477
128,665
134,105
139,824
145,842
152,168
158,805
165,748
172,986
180,488
188,221
196,154
204,258
212,511
220,895
229,385
237,952
246,559
255,165
263,733
272,232
280,64
288,942
297,135
305,226
313,244
321,242
329,264
337,346
345,504
353,725
361,99
370,281
378,578
386,859
395,098
403,253
411,276
419,113
426,684
433,894
440,605
446,633
451,797
455,925
458,882
460,579
460,945
459,91
457,42
453,431
447,909
440,834
432,189
421,95
410,122
396,751
381,945
365,875
348,738
330,733
312,033
292,78
273,108
253,157
233,067
212,965
192,981
173,251
153,934
135,223
117,305
100,318
84,343
69,404
55,49
42,581
30,663
19,725
9,753
0,722
−7,403
−14,646
−21,04
−26,644
−31,55
−35,9
−39,85
−43,519
−46,99
−50,314
−53,517
−56,621
−59,645
−62,597
−65,474
−68,275
−70,999
−73,653
−76,247
−78,772
−81,193
−83,451
−85,473
−87,207
−88,627
−89,715
−90,473
−90,905
−91,018
−90,841
−90,408
−89,749
−88,893
−87,86
−86,664
−85,331
−83,894
−82,391
−80,868
−79,359
−77,89
−76,481
−75,15
−73,909
−72,767
−71,722
−70,768
−69,9
−69,116
−68,415
−67,799
−67,265
−66,809
−66,426
−66,111
−65,859
−65,665
−65,524
−65,431
−65,382
−65,371
−65,397
−65,456
−65,546
−65,662
−65,8
−65,955
−66,123
−66,299
−66,48
−66,66
−66,835
−67,004
−67,162
−67,309
−67,441
−67,559
−67,662
−67,75
−67,822
−67,88
−67,925
−67,957
−67,978
−67,988
−67,99
−67,984
−67,972
−67,955
−67,935
−67,914
−67,893
−67,876
−67,862
−67,855
−67,855
−67,866
−67,888
−67,923
−67,971
−68,036
−68,117
−68,216
−68,335
−68,473
−68,631
−68,81
−69,009
−69,228
−69,466
−69,723
−69,997
−70,288
−70,594
−70,913
−71,246
−71,589
−71,943
−72,305
−72,674
−73,049
−73,428
−73,81
−74,194
−74,577
−74,959
−75,339
−75,716
−76,087
−76,453
−76,813
−77,164
−77,507
−77,841
−78,165
−78,479
−78,781
−79,071
−79,35
−79,616
−79,87
−80,112
−80,341
−80,558
−80,764
−80,957
−81,14
−81,311
−81,471
−81,621
−81,76
−81,89
−82,01
−82,121
−82,223
−82,316
−82,401
−82,478
−82,546
−82,606
−82,659
−82,704
−82,741
−82,771
−82,794
−82,81
−82,819
−82,822
−82,818
−82,807
−82,791
−82,768
−82,74
−82,706
−82,667
−82,622
−82,572
−82,518
−82,46
−82,397
−82,331
−82,261
−82,189
−82,114
−82,037
−81,959
−81,88
−81,8
−81,721
−81,642
−81,565
−81,49
−81,417
−81,348
−81,281
−81,219
−81,161
−81,107
−81,058
−81,014
−80,974
−80,941
−80,912
−80,888
−80,869
−80,856
−80,846
−80,841
−80,84
−80,842
−80,846
−80,853
−80,86
−80,869
−80,876
−80,883
−80,888
−80,889
−80,887
−80,88
−80,867
−80,847
−80,82
−80,784
−80,738
−80,682
−80,615
−80,535
−80,444
−80,339
−80,22
−80,088
−79,941
−79,781
−79,605
−79,415
−79,21
−78,992
−78,759
−78,513
−78,255
−77,985
−77,704
−77,414
−77,115
−76,809
−76,497
−76,182
−75,863
−75,543
−75,224
−74,907
−74,594
−74,287
−73,987
−73,696
−73,417
−73,151
−72,9
−72,666
−72,45
−72,255
−72,082
−71,932
−71,808
−71,71
−71,641
−71,601
−71,592
−71,614
−71,669
−71,757
−71,878
−72,031
−72,216
−72,434
−72,681
−72,957
−73,261
−73,592
−73,947
−74,324
−74,722
−75,139
−75,571
−76,017
−76,474
−76,938
−77,406
−77,875
−78,341
−78,802
−79,253
−79,691
−80,112
−80,513
−80,888
−81,234
−81,546
−81,821
−82,053
−82,239
−82,375
−82,459
−82,487
−82,457
−82,367
−82,216
−82,002
−81,725
−81,384
−80,977
−80,504
−79,965
−79,358
−78,683
−77,939
−77,126
−76,245
−75,296
−74,281
−73,2
−72,057
−70,853
−69,592
−68,277
−66,909
−65,491
−64,024
−62,513
−60,96
−59,368
−57,741
−56,08
−54,388
−52,67
−50,929
−49,165
−47,376
−45,555
−43,702
−41,819
−39,913
−37,995
−36,076
−34,173
−32,307
−30,511
−28,813
−27,24
−25,811
−24,535
−23,425
−22,5
−21,78
−21,294
−21,054
−21,057
−21,296
−21,759
−22,423
−23,257
−24,205
−25,182
−26,116
−26,95
−27,647
−28,194
−28,581
−28,787
−28,798
−28,602
−28,21
−27,662
−26,993
−26,235
−25,43
−24,633
−23,938
−23,485
−23,394
−23,756
−24,626
−26,013
−27,92
−30,347
−33,281
−36,704
−40,547
−44,694
−49,079
−53,698
−58,604
−63,918
−69,693
−75,877
−82,476
−89,568
−97,167
−105,223
−113,459
−121,342
−128,382
−134,221
−138,537
−140,993
−141,32
−139,374
−135,391
−130,065
−124,228
−118,681
−114,154
−111,478
−111,456
−114,662
−121,378
−131,374
−143,955
−158,412
−173,228
−185,44
−192,194
−190,8
−180,062
−161,954
−137,687
−105,864
−62,813
−1,313
84,658
194,885
325,297
467,882
611,821
748,882
869,877
963,757
1021,708
1036,698
1008,824
946,088
859,18
758,076
645,689
520,869
383,993
239,506
100,971
−15,919
−102,122
−155,778
−184,596
−200,437
−209,991
−215,48
−215,508
−206,888
−189,955
−167,733
−143,661
−121,033
−101,682
−86,214
−74,857
−67,627
−64,182
−63,713
−65,343
−68,362
−71,903
−75,166
−77,373
−77,609
−75,495
−71,217
−65,085
−57,546
−49,197
−40,56
−32,274
−25,102
−19,413
−15,274
−12,626
−11,212
−10,753
−11,005
−11,636
−12,298
−12,82
−13,129
−13,206
−13,088
−12,758
−12,189
−11,385
−10,348
−9,055
−7,459
−5,517
−3,217
−0,58
2,344
5,516
8,913
12,53
16,354
20,373
24,566
28,908
33,384
37,975
42,644
47,345
52,017
56,617
61,129
65,555
69,908
74,199
78,44
82,645
86,838
91,042
95,277
99,563
103,913
108,348
112,897
117,596
122,49
127,615
133,004
138,677
144,647
150,922
157,503
164,378
171,527
178,922
186,53
194,321
202,267
210,342
218,522
226,781
235,089
243,414
251,715
259,956
268,108
276,149
284,067
291,861
299,539
307,13
314,681
322,234
329,829
337,483
345,187
352,922
360,658
368,365
376,019
383,585
391,018
398,262
405,251
411,906
418,144
423,843
428,842
432,975
436,072
438,002
438,681
438,045
436,061
432,699
427,927
421,732
414,121
405,105
394,704
382,936
369,812
355,407
339,855
323,318
305,996
288,051
269,606
250,777
231,66
212,361
192,999
173,677
154,482
135,531
116,946
98,885
81,538
65,033
49,434
34,771
21,024
8,194
−3,694
−14,631
−24,614
−33,651
−41,769
−48,985
−55,306
−60,783
−65,495
−69,566
−73,168
−76,426
−79,42
−82,211
−84,826
−87,297
−89,67
−91,968
−94,195
−96,359
−98,46
−100,511
−102,536
−104,531
−106,467
−108,293
−109,926
−111,312
−112,426
−113,247
−113,775
−114,011
−113,956
−113,628
−113,065
−112,296
−111,348
−110,239
−108,98
−107,593
−106,11
−104,567
−103,01
−101,473
−99,978
−98,547
−97,196
−95,937
−94,777
−93,717
−92,746
−91,86
−91,054
−90,328
−89,683
−89,116
−88,623
−88,198
−87,837
−87,536
−87,29
−87,096
−86,949
−86,844
−86,778
−86,749
−86,757
−86,798
−86,87
−86,97
−87,093
−87,235
−87,395
−87,568
−87,749
−87,937
−88,128
−88,319
−88,509
−88,697
−88,882
−89,063
−89,24
−89,413
−89,583
−89,75
−89,914
−90,077
−90,237
−90,397
−90,555
−90,713
−90,87
−91,028
−91,186
−91,345
−91,505
−91,668
−91,833
−92,001
−92,173
−92,348
−92,526
−92,709
−92,897
−93,09
−93,289
−93,494
−93,706
−93,925
−94,151
−94,383
−94,622
−94,867
−95,117
−95,372
−95,631
−95,893
−96,157
−96,424
−96,691
−96,959
−97,226
−97,493
−97,757
−98,02
−98,279
−98,534
−98,786
−99,032
−99,272
−99,507
−99,735
−99,957
−100,17
−100,375
−100,572
−100,759
−100,935
−101,1
−101,253
−101,394
−101,521
−101,635
−101,734
−101,819
−101,89
−101,945
−101,986
−102,011
−102,022
−102,019
−102
−101,968
−101,922
−101,863
−101,792
−101,709
−101,616
−101,513
−101,4
−101,28
−101,153
−101,021
−100,884
−100,744
−100,602
−100,46
−100,32
−100,182
−100,05
−99,924
−99,807
−99,699
−99,603
−99,52
−99,451
−99,399
−99,363
−99,345
−99,347
−99,368
−99,411
−99,474
−99,559
−99,666
−99,795
−99,945
−100,117
−100,308
−100,519
−100,749
−100,997
−101,26
−101,539
−101,83
−102,133
−102,444
−102,762
−103,085
−103,409
−103,733
−104,052
−104,366
−104,67
−104,963
−105,241
−105,502
−105,743
−105,962
−106,157
−106,325
−106,464
−106,571
−106,647
−106,688
−106,694
−106,663
−106,596
−106,49
−106,346
−106,163
−105,942
−105,683
−105,386
−105,053
−104,683
−104,279
−103,843
−103,376
−102,88
−102,358
−101,813
−101,247
−100,663
−100,065
−99,454
−98,835
−98,209
−97,582
−96,954
−96,33
−95,713
−95,104
−94,508
−93,925
−93,359
−92,812
−92,285
−91,78
−91,298
−90,841
−90,41
−90,006
−89,631
−89,284
−88,967
−88,679
−88,421
−88,192
−87,991
−87,819
−87,673
−87,553
−87,457
−87,383
−87,33
−87,297
−87,28
−87,277
−87,288
−87,308
−87,336
−87,369
−87,405
−87,441
−87,477
−87,51
−87,538
−87,561
−87,578
−87,587
−87,587
−87,577
−87,556
−87,522
−87,475
−87,412
−87,334
−87,238
−87,125
−86,992
−86,84
−86,668
−86,476
−86,262
−86,027
−85,769
−85,488
−85,185
−84,858
−84,508
−84,135
−83,739
−83,32
−82,88
−82,416
−81,93
−81,419
−80,881
−80,316
−79,719
−79,089
−78,421
−77,715
−76,968
−76,177
−75,343
−74,463
−73,538
−72,569
−71,554
−70,492
−69,381
−68,219
−67,005
−65,735
−64,41
−63,025
−61,578
−60,068
−58,498
−56,868
−55,18
−53,43
−51,613
−49,73
−47,786
−45,789
−43,749
−41,68
−39,595
−37,518
−35,482
−33,517
−31,654
−29,913
−28,301
−26,828
−25,507
−24,349
−23,369
−22,567
−21,925
−21,435
−21,088
−20,873
−20,782
−20,78
−20,809
−20,822
−20,778
−20,659
−20,477
−20,238
−19,945
−19,615
−19,273
−18,967
−18,769
−18,724
−18,852
−19,169
−19,681
−20,423
−21,465
−22,856
−24,629
−26,787
−29,287
−32,09
−35,16
−38,432
−41,83
−45,235
−48,484
−51,509
−54,347
−57,095
−59,925
−62,952
−66,198
−69,756
−73,797
−78,389
−83,441
−88,665
−93,574
−97,769
−101,062
−103,211
−103,803
−102,532
−99,365
−94,592
−88,882
−82,954
−77,254
−72,401
−69,449
−69,277
−72,517
−79,471
−89,683
−102,56
−116,978
−130,246
−139,158
−140,488
−132,565
−117,086
−95,384
−66,722
−27,523
31,04
116,199
229,58
368,861
523,597
680,043
826,356
948,599
1035,99
1082,551
1084,457
1045,516
973,909
877,139
762,304
632,678
490
339,83
192,007
59,932
−44,043
−114,842
−155,909
−177,021
−187,953
−192,967
−191,167
−178,357
−153,456
−121,413
−89,191
−64,469
−50,057
−42,796
−39,262
−35,576
−30,661
−26,771
−24,724
−25,097
−27,59
−30,221
−31,987
−32,372
−30,715
−27,215
−22,26
−15,984
−8,826
−1,293
6,282
13,367
19,357
24,003
27,263
29,209
30,103
30,217
29,772
29,048
28,334
27,793
27,497
27,48
27,736
28,264
29,07
30,152
31,497
33,123
35,077
37,376
40,013
42,961
46,167
49,602
53,263
57,136
61,206
65,45
69,832
74,33
78,944
83,653
88,426
93,221
97,982
102,688
107,357
112,009
116,663
121,33
126,003
130,691
135,415
140,189
145,028
149,927
154,867
159,852
164,901
170,035
175,28
180,627
186,032
191,461
196,892
202,318
207,744
213,157
218,534
223,869
229,177
234,503
239,896
245,381
250,963
256,646
262,438
268,38
274,546
280,984
287,725
294,795
302,21
310,014
318,264
326,981
336,147
345,709
355,591
365,742
376,123
386,68
397,348
408,033
418,617
429,003
439,108
448,823
458,022
466,544
474,187
480,779
486,19
490,308
493,061
494,376
494,172
492,4
489,029
484,041
477,435
469,191
459,278
447,713
434,558
419,927
404,003
386,969
368,998
350,278
330,965
311,208
291,168
270,987
250,789
230,714
210,908
191,538
172,81
154,902
137,937
121,998
107,105
93,245
80,407
68,55
57,633
47,628
38,49
30,18
22,671
15,918
9,851
4,376
−0,649
−5,371
−9,896
−14,306
−18,649
−22,943
−27,206
−31,437
−35,623
−39,749
−43,803
−47,773
−51,661
−55,465
−59,165
−62,727
−66,089
−69,179
−71,948
−74,365
−76,412
−78,087
−79,394
−80,343
−80,963
−81,288
−81,347
−81,17
−80,775
−80,18
−79,409
−78,496
−77,476
−76,395
−75,285
−74,173
−73,083
−72,03
−71,03
−70,093
−69,221
−68,411
−67,66
−66,969
−66,341
−65,779
−65,283
−64,853
−64,486
−64,179
−63,931
−63,738
−63,599
−63,51
−63,469
−63,475
−63,524
−63,618
−63,756
−63,933
−64,148
−64,398
−64,678
−64,986
−65,319
−65,673
−66,044
−66,43
−66,828
−67,236
−67,651
−68,073
−68,5
−68,93
−69,363
−69,798
−70,235
−70,674
−71,114
−71,556
−71,999
−72,443
−72,888
−73,336
−73,786
−74,239
−74,696
−75,157
−75,623
−76,095
−76,572
−77,056
−77,547
−78,044
−78,548
−79,06
−79,578
−80,104
−80,637
−81,177
−81,723
−82,276
−82,833
−83,394
−83,959
−84,525
−85,092
−85,66
−86,225
−86,788
−87,348
−87,902
−88,45
−88,991
−89,524
−90,047
−90,559
−91,059
−91,546
−92,02
−92,48
−92,925
−93,356
−93,771
−94,172
−94,558
−94,929
−95,286
−95,629
−95,959
−96,277
−96,584
−96,881
−97,168
−97,448
−97,722
−97,99
−98,255
−98,519
−98,781
−99,045
−99,31
−99,58
−99,855
−100,136
−100,424
−100,722
−101,03
−101,349
−101,681
−102,025
−102,383
−102,755
−103,142
−103,543
−103,958
−104,388
−104,831
−105,288
−105,758
−106,24
−106,733
−107,237
−107,75
−108,27
−108,798
−109,33
−109,866
−110,404
−110,943
−111,48
−112,014
−112,544
−113,067
−113,583
−114,089
−114,585
−115,068
−115,538
−115,993
−116,431
−116,852
−117,255
−117,639
−118,003
−118,347
−118,672
−118,976
−119,259
−119,523
−119,768
−119,994
−120,201
−120,391
−120,564
−120,721
−120,863
−120,992
−121,109
−121,214
−121,311
−121,399
−121,482
−121,56
−121,635
−121,709
−121,784
−121,862
−121,943
−122,03
−122,125
−122,229
−122,344
−122,472
−122,614
−122,77
−122,943
−123,132
−123,339
−123,563
−123,805
−124,064
−124,34
−124,632
−124,941
−125,265
−125,604
−125,957
−126,322
−126,699
−127,086
−127,482
−127,885
−128,294
−128,705
−129,119
−129,531
−129,941
−130,345
−130,742
−131,128
−131,501
−131,858
−132,196
−132,512
−132,802
−133,064
−133,294
−133,491
−133,651
−133,773
−133,854
−133,893
−133,888
−133,838
−133,742
−133,597
−133,402
−133,155
−132,856
−132,501
−132,088
−131,615
−131,08
−130,483
−129,821
−129,093
−128,298
−127,437
−126,509
−125,515
−124,456
−123,33
−122,138
−120,879
−119,555
−118,167
−116,713
−115,195
−113,612
−111,964
−110,254
−108,481
−106,644
−104,741
−102,765
−100,716
−98,6
−96,424
−94,198
−91,937
−89,657
−87,382
−85,141
−82,963
−80,869
−78,879
−77,004
−75,262
−73,678
−72,275
−71,072
−70,081
−69,298
−68,717
−68,326
−68,1
−67,999
−67,972
−67,952
−67,887
−67,747
−67,51
−67,164
−66,694
−66,081
−65,321
−64,425
−63,413
−62,309
−61,138
−59,938
−58,775
−57,714
−56,82
−56,183
−55,853
−55,883
−56,343
−57,231
−58,52
−60,295
−62,632
−65,412
−68,599
−72,151
−75,766
−79,977
−85,315
−91,016
−96,968
−101,862
−104,054
−105,557
−107,786
−112,544
−122,208
−134,132
−145,667
−154,898
−159,228
−159,623
−157,149
−152,079
−145,537
−137,597
−128,826
−120,39
−113,023
−107,959
−106,385
−108,715
−115,059
−124,993
−137,248
−150,691
−164,269
−175,273
−179,911
−175,162
−158,201
−129,602
−93,683
−51,867
−3,892
54,636
133,124
235,821
362,487
507,052
655,416
793,32
906,387
981,451
1011,291
995,374
940,556
858,717
762,171
656,563
540,264
411,188
269,725
125,231
−5,009
−108,021
−177,932
−218,841
−242,3
−255,618
−260,725
−254,684
−234,254
−202,338
−165,324
−131,431
−105,171
−85,242
−69,511
−55,216
−42,227
−33,278
−29,376
−30,824
−36,731
−44,367
−51,936
−58,203
−61,722
−62,752
−61,954
−58,739
−53,483
−45,551
−33,946
−21,362
−9,886
−1,783
0,292
−1,335
−4,452
−7,408
−7,726
−6,597
−5,246
−3,849
−3,304
−3,046
−2,399
−1,517
−0,316
1,116
2,6
4,223
6,085
8,201
10,58
13,211
16,057
19,082
22,279
25,635
29,135
32,776
36,547
40,431
44,431
48,545
52,758
57,048
61,381
65,713
70,027
74,32
78,595
82,861
87,126
91,395
95,682
100,011
104,4
108,865
113,422
118,082
122,865
127,797
132,911
138,243
143,825
149,683
155,837
162,298
169,07
176,151
183,528
191,181
199,081
207,193
215,484
223,925
232,485
241,14
249,862
258,618
267,368
276,069
284,682
293,18
301,539
309,745
317,797
325,704
333,496
341,223
348,933
356,657
364,412
372,181
379,95
387,696
395,399
403,035
410,575
417,974
425,183
432,145
438,783
444,999
450,659
455,584
459,603
462,552
464,307
464,787
463,927
461,674
457,987
452,835
446,201
438,081
428,47
417,361
404,776
390,765
375,437
358,961
341,522
323,317
304,517
285,259
265,676
245,893
226,032
206,213
186,556
167,177
148,22
129,856
112,241
95,521
79,785
65,063
51,359
38,652
26,929
16,184
6,408
−2,416
−10,305
−17,286
−23,389
−28,655
−33,164
−37,031
−40,386
−43,364
−46,068
−48,558
−50,88
−53,06
−55,119
−57,08
−58,956
−60,753
−62,482
−64,152
−65,775
−67,36
−68,892
−70,333
−71,634
−72,735
−73,596
−74,2
−74,539
−74,616
−74,444
−74,037
−73,421
−72,628
−71,684
−70,612
−69,431
−68,155
−66,808
−65,421
−64,026
−62,664
−61,362
−60,142
−59,02
−58,008
−57,111
−56,331
−55,666
−55,104
−54,639
−54,265
−53,978
−53,775
−53,651
−53,599
−53,613
−53,683
−53,802
−53,963
−54,159
−54,383
−54,628
−54,891
−55,165
−55,449
−55,739
−56,031
−56,321
−56,604
−56,877
−57,137
−57,381
−57,606
−57,809
−57,989
−58,146
−58,28
−58,39
−58,479
−58,546
−58,596
−58,628
−58,647
−58,656
−58,656
−58,652
−58,645
−58,64
−58,638
−58,643
−58,659
−58,687
−58,73
−58,792
−58,874
−58,979
−59,108
−59,264
−59,448
−59,661
−59,904
−60,177
−60,481
−60,816
−61,182
−61,579
−62,004
−62,459
−62,94
−63,448
−63,978
−64,531
−65,102
−65,69
−66,291
−66,903
−67,523
−68,148
−68,776
−69,402
−70,025
−70,642
−71,25
−71,847
−72,43
−72,997
−73,546
−74,075
−74,583
−75,068
−75,529
−75,965
−76,376
−76,762
−77,122
−77,456
−77,766
−78,051
−78,313
−78,552
−78,769
−78,967
−79,146
−79,309
−79,457
−79,593
−79,719
−79,837
−79,951
−80,062
−80,172
−80,286
−80,404
−80,529
−80,664
−80,811
−80,972
−81,148
−81,343
−81,557
−81,792
−82,048
−82,328
−82,631
−82,958
−83,309
−83,683
−84,081
−84,501
−84,944
−85,406
−85,889
−86,389
−86,906
−87,436
−87,979
−88,532
−89,092
−89,656
−90,222
−90,788
−91,35
−91,905
−92,451
−92,985
−93,504
−94,005
−94,487
−94,947
−95,382
−95,792
−96,173
−96,525
−96,847
−97,137
−97,397
−97,624
−97,821
−97,987
−98,123
−98,231
−98,312
−98,367
−98,4
−98,411
−98,405
−98,383
−98,349
−98,305
−98,255
−98,203
−98,152
−98,106
−98,068
−98,043
−98,033
−98,043
−98,076
−98,135
−98,225
−98,347
−98,505
−98,702
−98,939
−99,219
−99,544
−99,915
−100,331
−100,794
−101,304
−101,86
−102,46
−103,103
−103,787
−104,511
−105,27
−106,063
−106,887
−107,737
−108,61
−109,503
−110,411
−111,331
−112,258
−113,187
−114,115
−115,036
−115,946
−116,841
−117,716
−118,566
−119,386
−120,173
−120,922
−121,628
−122,287
−122,896
−123,449
−123,945
−124,381
−124,755
−125,064
−125,308
−125,485
−125,595
−125,638
−125,614
−125,523
−125,365
−125,14
−124,848
−124,491
−124,068
−123,578
−123,022
−122,402
−121,716
−120,968
−120,157
−119,284
−118,353
−117,366
−116,325
−115,23
−114,084
−112,888
−111,643
−110,352
−109,017
−107,638
−106,214
−104,749
−103,243
−101,7
−100,117
−98,492
−96,819
−95,095
−93,328
−91,527
−89,701
−87,864
−86,034
−84,234
−82,497
−80,854
−79,329
−77,939
−76,694
−75,612
−74,715
−74,029
−73,581
−73,379
−73,42
−73,697
−74,198
−74,903
−75,772
−76,741
−77,729
−78,674
−79,532
−80,286
−80,925
−81,431
−81,78
−81,952
−81,94
−81,76
−81,433
−80,969
−80,39
−79,735
−79,07
−78,512
−78,184
−78,178
−78,56
−79,353
−80,565
−82,211
−84,298
−86,81
−89,73
−93,015
−96,602
−100,508
−104,782
−109,491
−114,75
−120,601
−127,011
−134,015
−141,71
−150,076
−158,968
−168,068
−176,777
−184,546
−190,994
−195,656
−198,024
−197,774
−194,8
−189,331
−182,178
−174,296
−166,486
−159,707
−155,011
−153,286
−155,186
−161,068
−170,07
−180,243
−189,607
−195,658
−197,103
−194,504
−187,651
−175,602
−154,344
−116,616
−56,406
30,16
141,176
269,544
407,438
545,899
678,175
797,613
894,853
961,106
987,711
972,075
919,938
840,4
745,002
639,758
523,636
396,452
259,444
120,965
−3,39
−102,697
−171,876
−213,509
−238,106
−252,885
−260,7
−261,638
−252,565
−233,362
−206,914
−176,622
−146,477
−119,079
−95,876
−78,008
−65,94
−59,527
−58,117
−60,653
−66,016
−73,008
−80,181
−86,1
−89,538
−89,903
−87,29
−82,111
−74,973
−66,599
−57,828
−49,604
−42,805
−37,884
−34,879
−33,626
−33,811
−35,102
−37,167
−39,6
−42,003
−44,137
−45,904
−47,27
−48,229
−48,749
−48,771
−48,255
−47,201
−45,616
−43,509
−40,901
−37,821
−34,312
−30,44
−26,267
−21,842
−17,202
−12,38
−7,401
−2,313
2,833
7,981
13,067
18,044
22,885
27,573
32,107
36,498
40,764
44,929
49,03
53,092
57,141
61,197
65,278
69,407
73,616
77,938
82,412
87,075
91,954
97,081
102,483
108,182
114,189
120,509
127,137
134,063
141,275
148,753
156,468
164,393
172,498
180,756
189,15
197,655
206,248
214,898
223,568
232,224
240,845
249,412
257,918
266,367
274,771
283,162
291,599
300,13
308,799
317,627
326,605
335,719
344,941
354,236
363,57
372,897
382,159
391,285
400,197
408,794
416,968
424,58
431,45
437,4
442,253
445,864
448,134
448,987
448,373
446,267
442,659
437,55
430,959
422,919
413,464
402,651
390,534
377,193
362,756
347,369
331,203
314,417
297,14
279,486
261,554
243,425
225,176
206,881
188,611
170,443
152,468
134,782
117,509
100,775
84,682
69,313
54,714
40,913
27,948
15,85
4,652
−5,616
−14,933
−23,281
−30,651
−37,05
−42,511
−47,084
−50,863
−53,966
−56,516
−58,638
−60,424
−61,94
−63,251
−64,408
−65,457
−66,435
−67,375
−68,301
−69,239
−70,21
−71,222
−72,278
−73,35
−74,391
−75,348
−76,157
−76,775
−77,181
−77,362
−77,314
−77,045
−76,565
−75,894
−75,058
−74,077
−72,966
−71,741
−70,418
−69,018
−67,573
−66,116
−64,686
−63,31
−62,009
−60,798
−59,685
−58,675
−57,766
−56,954
−56,229
−55,581
−55,007
−54,503
−54,067
−53,695
−53,382
−53,121
−52,904
−52,725
−52,578
−52,456
−52,354
−52,266
−52,189
−52,118
−52,054
−51,993
−51,932
−51,869
−51,8
−51,722
−51,633
−51,531
−51,412
−51,277
−51,122
−50,949
−50,758
−50,55
−50,326
−50,087
−49,835
−49,572
−49,299
−49,018
−48,73
−48,438
−48,143
−47,846
−47,549
−47,253
−46,962
−46,677
−46,399
−46,13
−45,873
−45,63
−45,402
−45,19
−44,996
−44,821
−44,666
−44,533
−44,421
−44,331
−44,264
−44,22
−44,197
−44,196
−44,216
−44,254
−44,311
−44,385
−44,474
−44,576
−44,691
−44,817
−44,953
−45,097
−45,247
−45,403
−45,563
−45,726
−45,891
−46,056
−46,219
−46,38
−46,537
−46,688
−46,833
−46,97
−47,098
−47,215
−47,322
−47,416
−47,498
−47,567
−47,623
−47,667
−47,697
−47,716
−47,723
−47,72
−47,707
−47,686
−47,658
−47,624
−47,585
−47,542
−47,497
−47,451
−47,404
−47,358
−47,314
−47,273
−47,236
−47,204
−47,177
−47,157
−47,145
−47,142
−47,148
−47,165
−47,193
−47,234
−47,287
−47,354
−47,435
−47,53
−47,64
−47,764
−47,902
−48,053
−48,218
−48,394
−48,581
−48,778
−48,984
−49,197
−49,416
−49,64
−49,868
−50,098
−50,329
−50,56
−50,79
−51,017
−51,242
−51,462
−51,676
−51,885
−52,086
−52,28
−52,465
−52,641
−52,806
−52,961
−53,104
−53,235
−53,353
−53,459
−53,552
−53,631
−53,698
−53,752
−53,795
−53,826
−53,846
−53,858
−53,861
−53,857
−53,848
−53,834
−53,818
−53,8
−53,782
−53,766
−53,752
−53,743
−53,739
−53,742
−53,754
−53,777
−53,81
−53,857
−53,918
−53,996
−54,09
−54,203
−54,336
−54,49
−54,667
−54,868
−55,094
−55,347
−55,626
−55,933
−56,269
−56,633
−57,025
−57,445
−57,893
−58,368
−58,868
−59,394
−59,944
−60,518
−61,115
−61,732
−62,367
−63,018
−63,685
−64,368
−65,06
−65,757
−66,463
−67,178
−67,904
−68,645
−69,39
−70,127
−70,861
−71,598
−72,313
−72,987
−73,603
−74,139
−74,606
−75,034
−75,4
−75,67
−75,924
−76,259
−76,614
−76,992
−77,41
−77,651
−78,289
−79,881
−81,624
−83,271
−83,35
−80,095
−75,454
−70,723
−67,833
−69,439
−73,193
−77,102
−79,804
−79,046
−76,44
−73,619
−70,945
−69,414
−68,448
−67,301
−66,114
−64,792
−63,386
−62,048
−60,686
−59,224
−57,69
−56,09
−54,412
−52,659
−50,846
−48,982
−47,09
−45,205
−43,341
−41,519
−39,785
−38,17
−36,695
−35,382
−34,231
−33,248
−32,441
−31,811
−31,36
−31,088
−30,989
−31,061
−31,309
−31,718
−32,264
−32,901
−33,56
−34,189
−34,759
−35,253
−35,674
−36,042
−36,377
−36,722
−37,14
−37,678
−38,378
−39,262
−40,33
−41,593
−43,083
−44,854
−46,982
−49,514
−52,459
−55,809
−59,528
−63,563
−67,83
−72,178
−76,452
−80,555
−84,464
−88,274
−92,11
−96,03
−100,103
−104,419
−108,958
−113,658
−118,329
−122,462
−125,589
−127,432
−127,72
−126,343
−123,391
−118,88
−113,041
−106,633
−100,399
−94,943
−90,902
−88,566
−88,121
−90,064
−94,666
−101,73
−111,049
−122,239
−134,885
−148,312
−160,446
−168,571
−170,18
−164,677
−155,04
−144,126
−131,251
−110,951
−71,902
−3,412
97,123
225,519
371,224
521,343
667,95
803,35
917,856
1001,449
1042,663
1036,353
987,681
908,467
812,897
710,563
602,717
485,042
355,353
217,112
81,049
−36,539
−125,464
−183,196
−213,43
−227,341
−231,637
−227,911
−218,385
−201,581
−179,101
−156,107
−133,413
−112,265
−93,093
−74,268
−57,591
−44,703
−35,97
−32,051
−31,841
−34,276
−39,209
−46,027
−53,936
−61,942
−68,733
−73,36
−75,501
−74,88
−71,158
−64,382
−55,034
−43,984
−32,484
−21,656
−12,061
−4,094
1,812
5,496
7,023
6,696
5,191
3,209
1,14
−0,753
−2,205
−3,052
−3,17
−2,498
−1,159
0,651
2,829
5,321
8,084
11,11
14,378
17,857
21,557
25,507
29,707
34,142
38,779
43,553
48,404
53,274
58,093
62,815
67,417
71,882
76,213
80,425
84,532
88,555
92,525
96,465
100,399
104,35
108,339
112,396
116,556
120,859
125,351
130,072
135,061
140,345
145,942
151,862
158,107
164,668
171,526
178,656
186,024
193,599
201,352
209,26
217,301
225,451
233,678
241,948
250,217
258,449
266,617
274,703
282,698
290,605
298,442
306,249
314,092
322,026
330,094
338,314
346,678
355,179
363,802
372,531
381,351
390,234
399,139
408,021
416,811
425,416
433,712
441,524
448,641
454,858
459,982
463,867
466,399
467,468
466,988
464,887
461,1
455,578
448,276
439,143
428,167
415,389
400,892
384,843
367,448
348,926
329,509
309,399
288,776
267,836
246,749
225,673
204,777
184,231
164,223
144,984
126,697
109,493
93,469
78,643
65,003
52,525
41,148
30,816
21,478
13,064
5,52
−1,196
−7,157
−12,449
−17,189
−21,546
−25,658
−29,622
−33,52
−37,387
−41,247
−45,12
−48,994
−52,842
−56,646
−60,382
−64,035
−67,608
−71,081
−74,421
−77,58
−80,48
−83,062
−85,297
−87,16
−88,645
−89,757
−90,5
−90,898
−90,995
−90,826
−90,425
−89,821
−89,033
−88,088
−87,022
−85,873
−84,688
−83,502
−82,342
−81,232
−80,19
−79,231
−78,365
−77,596
−76,919
−76,33
−75,828
−75,414
−75,089
−74,852
−74,7
−74,627
−74,629
−74,701
−74,84
−75,039
−75,294
−75,598
−75,948
−76,34
−76,769
−77,233
−77,724
−78,238
−78,769
−79,31
−79,856
−80,401
−80,942
−81,471
−81,987
−82,485
−82,963
−83,418
−83,848
−84,251
−84,626
−84,973
−85,291
−85,579
−85,838
−86,069
−86,271
−86,447
−86,597
−86,722
−86,824
−86,905
−86,968
−87,015
−87,049
−87,073
−87,091
−87,105
−87,12
−87,138
−87,163
−87,197
−87,245
−87,309
−87,39
−87,492
−87,617
−87,765
−87,938
−88,137
−88,363
−88,615
−88,894
−89,2
−89,533
−89,892
−90,276
−90,686
−91,121
−91,579
−92,06
−92,563
−93,087
−93,629
−94,19
−94,767
−95,357
−95,96
−96,573
−97,194
−97,82
−98,45
−99,08
−99,709
−100,334
−100,954
−101,567
−102,17
−102,763
−103,345
−103,914
−104,47
−105,012
−105,539
−106,053
−106,551
−107,035
−107,504
−107,958
−108,398
−108,823
−109,235
−109,633
−110,017
−110,388
−110,747
−111,093
−111,428
−111,751
−112,064
−112,367
−112,662
−112,95
−113,231
−113,507
−113,778
−114,047
−114,314
−114,579
−114,845
−115,11
−115,377
−115,645
−115,916
−116,189
−116,464
−116,743
−117,024
−117,309
−117,596
−117,887
−118,181
−118,479
−118,78
−119,084
−119,393
−119,706
−120,024
−120,346
−120,673
−121,006
−121,344
−121,688
−122,036
−122,39
−122,749
−123,113
−123,482
−123,855
−124,232
−124,613
−124,998
−125,387
−125,779
−126,174
−126,571
−126,971
−127,373
−127,776
−128,181
−128,586
−128,992
−129,397
−129,801
−130,202
−130,6
−130,993
−131,38
−131,759
−132,128
−132,487
−132,835
−133,168
−133,488
−133,792
−134,08
−134,349
−134,6
−134,829
−135,037
−135,222
−135,383
−135,517
−135,625
−135,704
−135,754
−135,773
−135,761
−135,717
−135,639
−135,526
−135,378
−135,193
−134,971
−134,711
−134,413
−134,076
−133,702
−133,289
−132,838
−132,35
−131,823
−131,258
−130,652
−130,004
−129,312
−128,574
−127,789
−126,955
−126,072
−125,138
−124,154
−123,12
−122,037
−120,905
−119,722
−118,489
−117,202
−115,861
−114,464
−113,008
−111,493
−109,915
−108,272
−106,566
−104,798
−102,967
−101,071
−99,105
−97,067
−94,96
−92,792
−90,57
−88,308
−86,02
−83,726
−81,457
−79,24
−77,104
−75,073
−73,162
−71,379
−69,738
−68,253
−66,936
−65,795
−64,818
−63,99
−63,297
−62,722
−62,249
−61,85
−61,474
−61,073
−60,608
−60,048
−59,386
−58,628
−57,782
−56,859
−55,879
−54,88
−53,928
−53,099
−52,446
−52,017
−51,84
−51,947
−52,407
−53,276
−54,603
−56,426
−58,738
−61,51
−64,706
−68,272
−72,137
−76,219
−80,373
−84,423
−88,274
−91,915
−95,431
−98,983
−102,658
−106,48
−110,52
−114,92
−119,728
−124,823
−129,868
−134,306
−137,672
−139,755
−140,352
−139,146
−135,94
−130,818
−124,19
−116,903
−109,811
−103,416
−98,327
−95,397
−95,285
−98,494
−105,169
−114,767
−126,796
−140,206
−152,376
−160,606
−162,368
−156,68
−145,97
−131,784
−112,42
−83,192
−35,098
39,562
141,442
266,657
406,349
548,191
683,003
801,105
892,05
948,948
966,072
944,168
890,549
813,58
721,469
616,261
497,409
367,031
230,815
102,252
−4,978
−84,146
−135,145
−166,143
−187,233
−203,359
−215,464
−221,172
−217,395
−204,485
−184,895
−161,716
−138,035
−115,349
−94,494
−76,241
−61,124
−49,686
−41,956
−37,431
−35,535
−35,672
−37,069
−38,928
−40,279
−40,117
−38,19
−34,702
−30,007
−24,724
−19,383
−14,305
−9,996
−7,089
−5,568
−5,671
−8,169
−12,337
−16,982
−20,443
−19,243
−13,128
−5,247
1,338
1,966
−4,163
−12,516
−19,533
−21,617
−17,833
−11,488
−4,76
1,058
5,487
9,714
14,291
19,085
24,054
28,983
33,785
38,556
43,284
47,904
52,397
56,764
61,007
65,11
69,062
72,859
76,521
80,096
83,624
87,123
90,617
94,131
97,697
101,357
105,153
109,116
113,271
117,647
122,268
127,157
132,34
137,83
143,632
149,749
156,179
162,918
169,957
177,277
184,848
192,641
200,624
208,771
217,064
225,477
233,982
242,55
251,14
259,719
268,265
276,753
285,163
293,492
301,745
309,944
318,139
326,369
334,666
343,052
351,522
360,058
368,642
377,246
385,845
394,404
402,879
411,22
419,375
427,269
434,807
441,864
448,269
453,846
458,433
461,871
464,052
464,897
464,341
462,335
458,84
453,828
447,284
439,196
429,551
418,344
405,601
391,396
375,867
359,189
341,546
323,132
304,106
284,603
264,756
244,694
224,543
204,425
184,466
164,802
145,598
127,044
109,316
92,542
76,787
62,073
48,391
35,723
24,061
13,391
3,697
−5,045
−12,865
−19,792
−25,865
−31,149
−35,751
−39,817
−43,509
−46,949
−50,219
−53,373
−56,441
−59,446
−62,412
−65,345
−68,245
−71,112
−73,944
−76,752
−79,541
−82,298
−84,986
−87,541
−89,885
−91,965
−93,753
−95,231
−96,397
−97,254
−97,808
−98,087
−98,123
−97,944
−97,576
−97,035
−96,335
−95,498
−94,557
−93,547
−92,513
−91,487
−90,491
−89,547
−88,669
−87,867
−87,15
−86,515
−85,953
−85,46
−85,034
−84,675
−84,383
−84,157
−83,992
−83,886
−83,832
−83,826
−83,865
−83,943
−84,057
−84,201
−84,372
−84,568
−84,788
−85,028
−85,286
−85,558
−85,839
−86,126
−86,415
−86,702
−86,982
−87,253
−87,51
−87,751
−87,974
−88,177
−88,357
−88,514
−88,646
−88,753
−88,834
−88,889
−88,918
−88,921
−88,898
−88,851
−88,78
−88,686
−88,57
−88,435
−88,284
−88,118
−87,94
−87,754
−87,562
−87,367
−87,172
−86,982
−86,798
−86,624
−86,463
−86,318
−86,193
−86,091
−86,014
−85,965
−85,948
−85,963
−86,013
−86,099
−86,224
−86,387
−86,591
−86,835
−87,121
−87,447
−87,814
−88,221
−88,667
−89,15
−89,668
−90,218
−90,799
−91,406
−92,037
−92,687
−93,352
−94,029
−94,714
−95,401
−96,087
−96,767
−97,437
−98,093
−98,73
−99,345
−99,934
−100,491
−101,015
−101,502
−101,949
−102,353
−102,712
−103,024
−103,287
−103,5
−103,662
−103,773
−103,832
−103,84
−103,798
−103,707
−103,568
−103,385
−103,158
−102,892
−102,59
−102,255
−101,892
−101,504
−101,096
−100,671
−100,235
−99,79
−99,342
−98,894
−98,451
−98,016
−97,594
−97,187
−96,8
−96,434
−96,094
−95,782
−95,499
−95,247
−95,029
−94,845
−94,695
−94,582
−94,505
−94,465
−94,46
−94,492
−94,558
−94,658
−94,789
−94,951
−95,14
−95,356
−95,594
−95,854
−96,132
−96,426
−96,734
−97,054
−97,382
−97,717
−98,057
−98,399
−98,742
−99,083
−99,421
−99,755
−100,084
−100,408
−100,725
−101,035
−101,338
−101,635
−101,925
−102,207
−102,483
−102,752
−103,015
−103,273
−103,525
−103,773
−104,018
−104,26
−104,5
−104,739
−104,979
−105,219
−105,459
−105,701
−105,945
−106,191
−106,439
−106,69
−106,944
−107,201
−107,462
−107,726
−107,994
−108,261
−108,525
−108,782
−109,031
−109,273
−109,503
−109,714
−109,906
−110,086
−110,261
−110,437
−110,612
−110,766
−110,894
−111,01
−111,099
−111,122
−111,047
−110,84
−110,494
−110,055
−109,535
−108,882
−108,141
−107,493
−106,98
−106,54
−106,196
−105,753
−105,551
−106,727
−109,073
−111,528
−112,404
−108,47
−99,817
−89,719
−81,401
−79,446
−84,293
−91,577
−97,915
−99,699
−96,181
−90,618
−85,045
−80,81
−78,377
−76,429
−74,343
−72,175
−69,878
−67,647
−65,544
−63,398
−61,163
−58,887
−56,59
−54,29
−52,026
−49,839
−47,771
−45,874
−44,168
−42,64
−41,282
−40,093
−39,075
−38,241
−37,6
−37,154
−36,899
−36,83
−36,923
−37,145
−37,451
−37,789
−38,125
−38,44
−38,739
−39,05
−39,415
−39,884
−40,492
−41,253
−42,157
−43,198
−44,366
−45,659
−47,101
−48,717
−50,533
−52,588
−54,887
−57,418
−60,152
−62,998
−65,801
−68,451
−70,905
−73,227
−75,608
−78,212
−81,117
−84,436
−88,325
−92,841
−97,87
−103,018
−107,628
−111,17
−113,406
−114,21
−113,414
−110,883
−106,739
−101,531
−96,251
−91,807
−88,644
−86,977
−87,21
−89,946
−95,525
−103,931
−114,59
−126,655
−139,805
−153,203
−164,631
−171,765
−172,303
−165,433
−153,094
−135,783
−111,238
−74,494
−17,721
63,578
168,223
290,544
421,236
552,425
678,493
794,786
896,438
975,064
1022,385
1032,554
1002,509
936,455
840,762
720,848
584,945
440,224
295,051
162,099
50,867
−33,852
−91,579
−128,802
−153,311
−168,957
−177,243
−176,932
−166,137
−146,391
−121,1
−94,093
−69,176
−48,523
−33,175
−23,776
−20,104
−21,408
−26,586
−34,192
−42,855
−51,26
−58,05
−62,063
−62,72
−60,003
−54,302
−46,291
−36,666
−26,179
−15,723
−6,193
1,847
8,198
12,902
16,189
18,301
19,488
20,092
20,496
20,964
21,608
22,439
23,384
24,379
25,411
26,465
27,527
28,61
29,746
30,973
32,36
33,971
35,828
37,934
40,269
42,799
45,515
48,419
51,517
54,816
58,315
62,002
65,866
69,896
74,069
78,353
82,705
87,067
91,406
95,708
99,974
104,218
108,45
112,676
116,912
121,178
125,496
129,889
134,373
138,963
143,681
148,558
153,634
158,959
164,569
170,482
176,711
183,261
190,125
197,294
204,742
212,428
220,313
228,365
236,556
244,868
253,277
261,751
270,252
278,735
287,162
295,504
303,741
311,858
319,857
327,749
335,57
343,384
351,241
359,184
367,229
375,368
383,589
391,877
400,21
408,572
416,932
425,249
433,477
441,548
449,375
456,843
463,792
470,025
475,349
479,58
482,577
484,24
484,48
483,227
480,42
476,007
469,954
462,231
452,805
441,671
428,855
414,425
398,52
381,331
363,066
343,946
324,159
303,866
283,223
262,379
241,478
220,666
200,084
179,89
160,269
141,401
123,449
106,535
90,714
75,997
62,363
49,77
38,185
27,584
17,934
9,203
1,356
−5,651
−11,867
−17,369
−22,275
−26,717
−30,837
−34,747
−38,516
−42,188
−45,786
−49,317
−52,786
−56,194
−59,535
−62,806
−66,007
−69,136
−72,194
−75,161
−77,994
−80,638
−83,025
−85,106
−86,859
−88,271
−89,342
−90,084
−90,514
−90,658
−90,549
−90,219
−89,693
−88,994
−88,139
−87,157
−86,08
−84,947
−83,801
−82,678
−81,603
−80,598
−79,677
−78,853
−78,132
−77,516
−76,997
−76,574
−76,244
−76,007
−75,865
−75,817
−75,858
−75,984
−76,19
−76,47
−76,82
−77,234
−77,706
−78,232
−78,806
−79,424
−80,083
−80,779
−81,507
−82,261
−83,034
−83,821
−84,615
−85,41
−86,201
−86,981
−87,744
−88,488
−89,207
−89,898
−90,559
−91,186
−91,778
−92,334
−92,853
−93,334
−93,777
−94,182
−94,55
−94,88
−95,174
−95,434
−95,66
−95,856
−96,023
−96,164
−96,282
−96,38
−96,46
−96,527
−96,582
−96,629
−96,672
−96,713
−96,757
−96,807
−96,865
−96,935
−97,021
−97,125
−97,249
−97,395
−97,565
−97,761
−97,983
−98,232
−98,51
−98,815
−99,148
−99,509
−99,897
−100,31
−100,749
−101,211
−101,694
−102,197
−102,718
−103,253
−103,801
−104,359
−104,924
−105,494
−106,066
−106,637
−107,205
−107,767
−108,319
−108,859
−109,385
−109,893
−110,382
−110,848
−111,289
−111,704
−112,091
−112,447
−112,773
−113,066
−113,326
−113,553
−113,745
−113,904
−114,03
−114,122
−114,183
−114,212
−114,212
−114,183
−114,128
−114,049
−113,947
−113,824
−113,683
−113,526
−113,354
−113,169
−112,975
−112,773
−112,565
−112,354
−112,141
−111,929
−111,72
−111,515
−111,318
−111,129
−110,951
−110,784
−110,631
−110,493
−110,37
−110,264
−110,176
−110,105
−110,053
−110,02
−110,004
−110,007
−110,028
−110,066
−110,121
−110,191
−110,276
−110,375
−110,487
−110,612
−110,748
−110,894
−111,051
−111,216
−111,388
−111,568
−111,753
−111,942
−112,135
−112,33
−112,526
−112,721
−112,914
−113,105
−113,291
−113,472
−113,646
−113,813
−113,97
−114,117
−114,253
−114,378
−114,49
−114,59
−114,675
−114,748
−114,806
−114,849
−114,879
−114,893
−114,892
−114,876
−114,844
−114,796
−114,733
−114,653
−114,558
−114,448
−114,322
−114,183
−114,03
−113,865
−113,689
−113,504
−113,31
−113,109
−112,904
−112,696
−112,487
−112,279
−112,075
−111,876
−111,683
−111,5
−111,326
−111,165
−111,015
−110,88
−110,76
−110,655
−110,568
−110,498
−110,446
−110,414
−110,402
−110,411
−110,44
−110,489
−110,559
−110,647
−110,752
−110,874
−111,01
−111,157
−111,313
−111,474
−111,638
−111,799
−111,955
−112,1
−112,23
−112,341
−112,427
−112,484
−112,507
−112,492
−112,436
−112,334
−112,183
−111,979
−111,719
−111,4
−111,017
−110,568
−110,048
−109,452
−108,779
−108,023
−107,182
−106,255
−105,24
−104,136
−102,944
−101,666
−100,303
−98,857
−97,332
−95,728
−94,049
−92,297
−90,474
−88,583
−86,628
−84,612
−82,537
−80,411
−78,239
−76,027
−73,778
−71,492
−69,172
−66,828
−64,469
−62,111
−59,774
−57,478
−55,247
−53,117
−51,122
−49,291
−47,654
−46,222
−45,002
−44,007
−43,244
−42,725
−42,455
−42,421
−42,602
−42,98
−43,529
−44,22
−45,015
−45,844
−46,645
−47,368
−47,976
−48,463
−48,838
−49,108
−49,285
−49,395
−49,465
−49,546
−49,694
−49,94
−50,316
−50,87
−51,643
−52,713
−54,139
−55,945
−58,139
−60,702
−63,572
−66,663
−69,907
−73,245
−76,676
−80,261
−84,036
−88,023
−92,26
−96,817
−101,689
−106,758
−111,786
−116,36
−120,087
−122,773
−124,322
−124,604
−123,64
−121,551
−118,47
−114,838
−111,196
−107,798
−104,802
−102,466
−100,908
−100,342
−101,277
−104,063
−108,918
−116,133
−125,945
−137,541
−149,024
−158,427
−163,167
−162,47
−158,159
−150,557
−138,113
−115,599
−73,808
−5,245
93,26
219,363
365,998
523,737
681,95
828,872
950,653
1034,201
1070,787
1059,913
1010,298
934,482
844,386
744,744
632,889
507,154
368,868
227,499
99,956
−1,887
−72,575
−115,075
−140,743
−157,515
−168,848
−174,822
−171,796
−159,292
−139,884
−116,818
−94,133
−73,958
−56,88
−43,43
−33,607
−27,308
−24,481
−24,479
−26,459
−29,86
−34,004
−38,167
−41,806
−44,273
−44,955
−43,744
−40,796
−36,281
−30,569
−24,081
−17,173
−10,376
−4,264
0,918
5,122
8,392
10,935
12,943
14,568
16,033
17,564
19,252
21,107
23,083
25,077
27,038
28,946
30,782
32,56
34,306
36,064
37,898
39,855
41,952
44,195
46,581
49,108
51,792
54,647
57,686
60,926
64,372
68,026
71,882
75,907
80,062
84,303
88,573
92,839
97,086
101,305
105,503
109,697
113,894
118,113
122,377
126,701
131,103
135,605
140,229
145,008
149,982
155,185
160,66
166,435
172,525
178,935
185,658
192,668
199,941
207,451
215,165
223,064
231,126
239,323
247,629
256,013
264,443
272,897
281,351
289,783
298,187
306,57
314,957
323,4
331,945
340,63
349,486
358,525
367,745
377,14
386,694
396,375
406,149
415,965
425,766
435,501
445,092
454,433
463,387
471,779
479,421
486,141
491,773
496,164
499,196
500,772
500,81
499,259
496,081
491,244
484,729
476,512
466,58
454,963
441,738
427,032
411,013
393,858
375,754
356,895
337,452
317,577
297,421
277,116
256,789
236,578
216,626
197,094
178,168
160,016
142,756
126,468
111,181
96,897
83,607
71,282
59,894
49,42
39,83
31,095
23,191
16,077
9,689
3,941
−1,3
−6,176
−10,793
−15,232
−19,544
−23,754
−27,884
−31,943
−35,925
−39,824
−43,633
−47,345
−50,965
−54,494
−57,914
−61,193
−64,273
−67,083
−69,574
−71,716
−73,493
−74,905
−75,955
−76,653
−77,027
−77,112
−76,939
−76,537
−75,927
−75,127
−74,164
−73,071
−71,887
−70,657
−69,418
−68,196
−67,013
−65,889
−64,835
−63,863
−62,975
−62,164
−61,428
−60,767
−60,181
−59,673
−59,241
−58,882
−58,592
−58,366
−58,2
−58,089
−58,029
−58,013
−58,039
−58,1
−58,195
−58,321
−58,474
−58,651
−58,847
−59,057
−59,277
−59,502
−59,728
−59,95
−60,163
−60,366
−60,555
−60,728
−60,884
−61,022
−61,141
−61,241
−61,324
−61,389
−61,439
−61,474
−61,498
−61,512
−61,518
−61,52
−61,519
−61,52
−61,524
−61,536
−61,558
−61,594
−61,646
−61,718
−61,812
−61,931
−62,076
−62,25
−62,454
−62,69
−62,959
−63,262
−63,6
−63,974
−64,382
−64,824
−65,301
−65,809
−66,348
−66,915
−67,509
−68,126
−68,765
−69,421
−70,093
−70,777
−71,47
−72,167
−72,866
−73,563
−74,255
−74,937
−75,606
−76,26
−76,894
−77,507
−78,096
−78,657
−79,19
−79,693
−80,163
−80,6
−81,003
−81,37
−81,702
−81,997
−82,257
−82,482
−82,672
−82,828
−82,951
−83,043
−83,105
−83,139
−83,146
−83,129
−83,09
−83,03
−82,953
−82,86
−82,755
−82,639
−82,515
−82,386
−82,255
−82,123
−81,993
−81,866
−81,746
−81,633
−81,53
−81,438
−81,358
−81,292
−81,241
−81,205
−81,185
−81,183
−81,197
−81,229
−81,279
−81,346
−81,43
−81,531
−81,648
−81,781
−81,93
−82,092
−82,268
−82,456
−82,656
−82,866
−83,085
−83,312
−83,545
−83,783
−84,024
−84,268
−84,513
−84,757
−84,999
−85,238
−85,473
−85,702
−85,924
−86,138
−86,342
−86,536
−86,718
−86,888
−87,044
−87,186
−87,313
−87,424
−87,519
−87,598
−87,66
−87,705
−87,733
−87,744
−87,737
−87,714
−87,675
−87,619
−87,548
−87,462
−87,361
−87,248
−87,121
−86,982
−86,832
−86,672
−86,502
−86,325
−86,141
−85,951
−85,758
−85,563
−85,367
−85,172
−84,981
−84,794
−84,615
−84,443
−84,282
−84,133
−83,998
−83,878
−83,775
−83,69
−83,624
−83,578
−83,552
−83,548
−83,565
−83,604
−83,665
−83,749
−83,855
−83,984
−84,136
−84,31
−84,507
−84,726
−84,966
−85,226
−85,506
−85,803
−86,116
−86,444
−86,783
−87,132
−87,488
−87,847
−88,208
−88,565
−88,918
−89,261
−89,593
−89,909
−90,206
−90,482
−90,734
−90,96
−91,157
−91,323
−91,455
−91,552
−91,611
−91,63
−91,604
−91,531
−91,408
−91,231
−90,998
−90,706
−90,353
−89,937
−89,458
−88,916
−88,311
−87,643
−86,912
−86,118
−85,26
−84,341
−83,36
−82,317
−81,211
−80,043
−78,814
−77,525
−76,178
−74,771
−73,304
−71,77
−70,172
−68,515
−66,805
−65,052
−63,27
−61,475
−59,692
−57,952
−56,281
−54,706
−53,249
−51,927
−50,76
−49,77
−48,971
−48,381
−48,007
−47,84
−47,869
−48,077
−48,43
−48,896
−49,428
−49,961
−50,448
−50,846
−51,12
−51,253
−51,226
−51,024
−50,655
−50,127
−49,469
−48,733
−47,972
−47,247
−46,635
−46,2
−46,016
−46,178
−46,759
−47,825
−49,424
−51,563
−54,239
−57,437
−61,116
−65,231
−69,692
−74,346
−79,098
−83,914
−88,82
−93,951
−99,389
−105,102
−111,113
−117,517
−124,307
−131,339
−138,225
−144,302
−149,075
−152,355
−154,042
−154,002
−152,134
−148,562
−143,841
−138,973
−134,817
−131,776
−129,997
−129,773
−131,584
−135,667
−141,934
−149,847
−158,708
−168,353
−178,183
−186,27
−190,36
−188,143
−178,796
−164,064
−145,325
−122,182
−91,159
−45,787
20,397
111,695
227,975
365,237
514,948
664,412
799,398
904,211
966,424
981,066
951,418
887,722
802,369
704,25
594,526
471,725
336,499
194,373
59,723
−52,853
−135,83
−188,836
−220,385
−241,12
−256,45
−267,771
−273,07
−269,55
−257,813
−240,313
−219,927
−199,497
−180,191
−162,365
−146,373
−132,293
−120,315
−110,703
−103,34
−97,978
−94,467
−92,426
−91,316
−90,616
−89,645
−87,749
−84,729
−80,64
−75,589
−69,893
−63,936
−58,098
−52,928
−48,976
−46,458
−45,358
−45,532
−46,707
−48,636
−51,114
−53,867
−56,58
−59,038
−61,122
−62,787
−64,05
−64,903
−65,303
−65,206
−64,614
−63,547
−62,042
−60,143
−57,875
−55,263
−52,34
−49,143
−45,715
−42,103
−38,339
−34,44
−30,437
−26,362
−22,265
−18,208
−14,23
−10,341
−6,542
−2,825
0,824
4,411
7,959
11,496
15,052
18,651
22,314
26,055
29,896
33,864
37,995
42,325
46,886
51,697
56,781
62,156
67,836
73,829
80,13
86,724
93,595
100,725
108,089
115,655
123,388
131,255
139,222
147,266
155,36
163,474
171,572
179,611
187,556
195,38
203,067
210,606
217,997
225,245
232,381
239,457
246,517
253,596
260,706
267,832
274,957
282,066
289,141
296,165
303,11
309,935
316,593
323,035
329,187
334,953
340,196
344,738
348,409
351,053
352,553
352,832
351,815
349,439
345,65
340,413
333,698
325,489
315,761
304,494
291,709
277,469
261,901
245,183
227,501
209,042
189,972
170,432
150,575
130,551
110,495
90,539
70,823
51,496
32,741
14,748
−2,342
−18,427
−33,461
−47,444
−60,384
−72,306
−83,237
−93,207
−102,261
−110,442
−117,789
−124,347
−130,181
−135,383
−140,093
−144,45
−148,564
−152,517
−156,359
−160,123
−163,834
−167,504
−171,13
−174,701
−178,203
−181,626
−184,973
−188,235
−191,392
−194,403
−197,201
−199,727
−201,944
−203,826
−205,365
−206,558
−207,406
−207,923
−208,139
−208,087
−207,797
−207,294
−206,596
−205,725
−204,712
−203,591
−202,407
−201,195
−199,981
−198,786
−197,628
−196,521
−195,477
−194,499
−193,583
−192,727
−191,928
−191,186
−190,505
−189,885
−189,321
−188,812
−188,353
−187,94
−187,573
−187,248
−186,964
−186,716
−186,505
−186,329
−186,189
−186,085
−186,015
−185,977
−185,969
−185,988
−186,033
−186,102
−186,192
−186,301
−186,427
−186,57
−186,729
−186,902
−187,09
−187,293
−187,508
−187,738
−187,981
−188,238
−188,509
−188,794
−189,092
−189,403
−189,728
−190,065
−190,415
−190,776
−191,148
−191,53
−191,922
−192,323
−192,73
−193,144
−193,562
−193,983
−194,406
−194,828
−195,248
−195,664
−196,076
−196,48
−196,875
−197,261
−197,634
−197,993
−198,336
−198,662
−198,969
−199,255
−199,519
−199,76
−199,977
−200,168
−200,334
−200,473
−200,586
−200,671
−200,729
−200,76
−200,764
−200,74
−200,691
−200,615
−200,515
−200,39
−200,244
−200,076
−199,889
−199,683
−199,461
−199,224
−198,974
−198,712
−198,438
−198,156
−197,866
−197,569
−197,266
−196,96
−196,65
−196,337
−196,023
−195,708
−195,393
−195,076
−194,76
−194,443
−194,127
−193,81
−193,494
−193,178
−192,862
−192,546
−192,231
−191,915
−191,6
−191,283
−190,965
−190,646
−190,325
−190,001
−189,674
−189,343
−189,009
−188,67
−188,327
−187,98
−187,627
−187,27
−186,907
−186,539
−186,166
−185,788
−185,405
−185,018
−184,627
−184,233
−183,836
−183,436
−183,034
−182,631
−182,225
−181,818
−181,41
−180,999
−180,586
−180,17
−179,751
−179,328
−178,902
−178,47
−178,032
−177,588
−177,137
−176,677
−176,208
−175,728
−175,236
−174,731
−174,212
−173,678
−173,127
−172,56
−171,974
−171,368
−170,741
−170,091
−169,418
−168,72
−167,996
−167,244
−166,464
−165,655
−164,818
−163,951
−163,055
−162,13
−161,178
−160,198
−159,192
−158,162
−157,109
−156,034
−154,94
−153,829
−152,703
−151,564
−150,415
−149,258
−148,095
−146,929
−145,76
−144,592
−143,426
−142,263
−141,105
−139,955
−138,813
−137,682
−136,563
−135,459
−134,369
−133,296
−132,24
−131,201
−130,179
−129,173
−128,184
−127,209
−126,247
−125,296
−124,354
−123,417
−122,482
−121,547
−120,606
−119,656
−118,692
−117,711
−116,707
−115,678
−114,618
−113,523
−112,391
−111,219
−110,001
−108,735
−107,417
−106,043
−104,61
−103,111
−101,544
−99,903
−98,185
−96,385
−94,501
−92,531
−90,473
−88,325
−86,088
−83,763
−81,349
−78,848
−76,26
−73,586
−70,826
−67,982
−65,055
−62,046
−58,957
−55,79
−52,548
−49,237
−45,86
−42,418
−38,91
−35,339
−31,713
−28,044
−24,345
−20,634
−16,929
−13,255
−9,646
−6,133
−2,747
0,488
3,559
6,455
9,162
11,669
13,964
16,041
17,916
19,606
21,126
22,496
23,743
24,903
26,039
27,204
28,438
29,768
31,198
32,723
34,341
36,039
37,793
39,569
41,313
42,975
44,528
45,943
47,189
48,218
48,946
49,317
49,311
48,926
48,193
47,148
45,821
44,285
42,662
41,036
39,444
37,854
36,125
34,148
31,889
29,292
26,262
22,784
18,972
15,115
11,718
9,217
7,808
7,649
8,979
11,932
16,424
22,098
28,214
34,033
39,208
43,414
46,119
46,882
45,345
41,338
35,273
27,666
19,218
11,512
6,496
6,277
11,775
22,237
37,163
56,847
85,361
129,583
194,666
284,301
396,517
524,914
664,144
806,513
943,784
1066,985
1162,347
1218,055
1229,161
1197,778
1134,524
1052,662
959,37
855,263
737,759
605,509
464,733
329,926
216,574
134,356
84,859
60,55
50,269
47,33
49,043
56,229
71,623
94,603
122,167
150,985
177,549
199,785
217,048
229,082
236,038
238,523
237,468
233,883
228,718
223,119
218,132
214,701
213,764
215,633
220,079
226,774
235,236
244,804
254,858
264,666
273,409
280,723
286,576
291,058
294,451
297,037
299,042
300,781
302,575
304,58
306,858
309,395
312,102
314,958
317,981
321,196
324,667
328,438
332,522
336,935
341,669
346,703
352,016
357,566
363,31
369,221
375,281
381,485
387,843
394,336
400,927
407,561
414,16
420,676
427,089
433,384
439,56
445,626
451,594
457,498
463,382
469,267
475,16
481,061
486,969
492,905
498,909
505,021
511,283
517,719
524,344
531,185
538,258
545,567
553,095
560,81
568,682
576,713
584,924
593,326
601,918
610,682
619,592
628,632
637,797
647,08
656,468
665,935
675,459
685,042
694,707
704,486
714,398
724,434
734,568
744,805
755,162
765,655
776,299
787,08
797,964
808,922
819,929
830,955
841,958
852,872
863,607
874,077
884,199
893,89
903,062
911,582
919,291
926,044
931,698
936,136
939,272
941,026
941,319
940,098
937,327
932,983
927,059
919,538
910,399
899,65
887,34
873,57
858,491
842,264
825,059
