Nimi,Mikko Happonen
Syntymäaika,"20.5.2002"
Tallennuspäivä,2024-11-17 16:03:45 +0200
Luokitus,Syke alle 50
Oireet,
Ohjelmistoversio,1.90
Laite,"Watch7,8"
Näytetaajuus,512 hertsiä


Kytkentä,I-kytkentä
Yksikkö,µV

−124,197
−132,488
−134,258
−132,573
−129,913
−128,355
−130,401
−132,444
−132,541
−131,166
−129,871
−135,57
−149,756
−166,853
−177,975
−169,597
−138,362
−94,612
−53,827
−33,843
−41,19
−66,448
−95,024
−113,66
−117,275
−111,647
−105,29
−102,224
−100,713
−94,803
−79,829
−57,617
−36,117
−24,184
−26,099
−39,03
−54,082
−62,698
−61,232
−51,383
−38,655
−27,399
−19,206
−13,809
−9,411
−5,043
−0,922
3,206
6,597
7,303
6,078
4,777
6,093
16,382
35,875
57,922
76,574
81,833
71,001
54,205
38,987
34,298
44,685
61,326
78,118
90,806
95,655
97,175
98,607
100,394
103,988
108,243
112,062
115,946
119,851
123,792
127,986
132,312
136,649
141,027
145,422
149,765
154,04
158,269
162,451
166,583
170,663
174,648
178,511
182,246
185,844
189,303
192,62
195,789
198,81
201,674
204,378
206,917
209,28
211,462
213,468
215,309
217,016
218,626
220,153
221,597
222,947
224,166
225,215
226,047
226,593
226,802
226,629
226,03
224,98
223,452
221,4
218,777
215,52
211,55
206,82
201,303
194,984
187,881
180,028
171,475
162,308
152,602
142,416
131,811
120,825
109,497
97,886
86,05
74,058
61,996
49,932
37,923
26,026
14,272
2,678
−8,751
−20,04
−31,206
−42,251
−53,168
−63,941
−74,547
−84,97
−95,196
−105,204
−114,99
−124,542
−133,85
−142,905
−151,693
−160,187
−168,36
−176,171
−183,584
−190,574
−197,118
−203,205
−208,827
−213,977
−218,654
−222,864
−226,611
−229,896
−232,726
−235,103
−237,034
−238,53
−239,604
−240,272
−240,553
−240,463
−240,02
−239,242
−238,146
−236,747
−235,064
−233,11
−230,901
−228,456
−225,79
−222,92
−219,865
−216,642
−213,27
−209,77
−206,157
−202,443
−198,653
−194,808
−190,926
−187,031
−183,127
−179,215
−175,316
−171,452
−167,608
−163,772
−159,937
−156,087
−152,247
−148,464
−144,72
−140,979
−137,35
−133,961
−130,738
−127,69
−124,841
−121,922
−119,659
−118,757
−118,205
−117,695
−115,367
−108,997
−101,038
−93,124
−87,689
−88,077
−91,319
−94,896
−97,079
−95,016
−90,735
−86,291
−82,133
−79,513
−77,693
−75,729
−73,791
−71,753
−69,671
−67,73
−65,799
−63,771
−61,675
−59,513
−57,268
−54,938
−52,526
−50,033
−47,475
−44,869
−42,206
−39,476
−36,683
−33,824
−30,902
−27,92
−24,876
−21,77
−18,607
−15,391
−12,126
−8,817
−5,468
−2,085
1,328
4,764
8,217
11,682
15,152
18,62
22,08
25,525
28,95
32,346
35,707
39,027
42,299
45,517
48,675
51,766
54,786
57,729
60,591
63,368
66,054
68,646
71,141
73,536
75,828
78,015
80,096
82,069
83,933
85,689
87,335
88,873
90,303
91,625
92,84
93,949
94,953
95,855
96,655
97,355
97,957
98,464
98,878
99,201
99,434
99,581
99,643
99,623
99,521
99,34
99,08
98,744
98,333
97,847
97,288
96,657
95,954
95,179
94,333
93,416
92,428
91,369
90,239
89,04
87,77
86,431
85,024
83,548
82,007
80,399
78,727
76,992
75,195
73,338
71,423
69,451
67,424
65,346
63,218
61,044
58,827
56,57
54,277
51,952
49,599
47,223
44,828
42,419
40
37,578
35,156
32,741
30,337
27,949
25,583
23,241
20,929
18,65
16,408
14,205
12,043
9,927
7,856
5,833
3,859
1,935
0,06
−1,764
−3,538
−5,264
−6,943
−8,576
−10,167
−11,717
−13,231
−14,711
−16,163
−17,59
−18,998
−20,393
−21,779
−23,165
−24,555
−25,956
−27,376
−28,821
−30,297
−31,811
−33,369
−34,978
−36,643
−38,369
−40,161
−42,025
−43,965
−45,984
−48,088
−50,278
−52,559
−54,932
−57,4
−59,965
−62,628
−65,39
−68,251
−71,21
−74,268
−77,422
−80,671
−84,013
−87,444
−90,962
−94,562
−98,24
−101,991
−105,81
−109,691
−113,629
−117,619
−121,653
−125,727
−129,834
−133,969
−138,126
−142,3
−146,485
−150,676
−154,87
−159,059
−163,241
−167,412
−171,566
−175,701
−179,813
−183,9
−187,959
−191,988
−195,985
−199,95
−203,881
−207,778
−211,642
−215,472
−219,27
−223,038
−226,776
−230,489
−234,177
−237,845
−241,496
−245,133
−248,761
−252,382
−256,001
−259,62
−263,245
−266,878
−270,522
−274,18
−277,856
−281,553
−285,272
−289,016
−292,786
−296,584
−300,41
−304,265
−308,148
−312,059
−315,996
−319,958
−323,943
−327,947
−331,969
−336,003
−340,046
−344,092
−348,137
−352,173
−356,194
−360,193
−364,162
−368,093
−371,977
−375,807
−379,574
−383,268
−386,881
−390,405
−393,83
−397,148
−400,349
−403,426
−406,37
−409,173
−411,828
−414,329
−416,669
−418,841
−420,842
−422,666
−424,31
−425,77
−427,044
−428,13
−429,027
−429,734
−430,254
−430,587
−430,738
−430,709
−430,507
−430,139
−429,612
−428,934
−428,115
−427,163
−426,088
−424,901
−423,611
−422,228
−420,763
−419,228
−417,634
−415,994
−414,321
−412,627
−410,925
−409,229
−407,552
−405,905
−404,295
−402,731
−401,223
−399,779
−398,417
−397,149
−395,982
−394,921
−393,971
−393,129
−392,394
−391,754
−391,182
−390,652
−390,143
−389,635
−389,122
−388,596
−388,04
−387,433
−386,75
−385,967
−385,08
−384,087
−382,981
−381,771
−380,478
−379,151
−377,886
−376,774
−375,885
−375,274
−374,968
−375
−375,432
−376,32
−377,722
−379,685
−382,209
−385,312
−389,053
−393,373
−398,119
−403,029
−407,676
−411,707
−414,881
−416,861
−417,363
−416,34
−413,869
−410,315
−406,262
−401,983
−397,71
−393,884
−390,692
−387,995
−385,348
−381,671
−375,83
−367,268
−355,035
−337,735
−314,456
−284,454
−248,488
−209,307
−168,188
−125,474
−81,415
−35,048
9,855
45,682
65,769
62,604
34,835
−12,053
−72,601
−139,566
−208,395
−279,025
−349,937
−418,735
−481,881
−534,142
−572,022
−594,302
−601,019
−593,292
−572,808
−541,928
−503,657
−461,474
−418,946
−378,922
−343,766
−315,432
−294,816
−281,859
−275,865
−275,314
−278,295
−283,03
−287,548
−290,11
−289,829
−286,364
−279,836
−270,943
−260,528
−249,454
−238,822
−229,474
−221,767
−215,839
−211,528
−208,44
−206,198
−204,399
−202,56
−200,378
−197,707
−194,434
−190,571
−186,159
−181,21
−175,785
−169,963
−163,783
−157,282
−150,517
−143,535
−136,421
−129,283
−122,191
−115,201
−108,355
−101,683
−95,221
−89,001
−83,034
−77,319
−71,856
−66,642
−61,682
−56,975
−52,5
−48,229
−44,127
−40,156
−36,285
−32,495
−28,765
−25,079
−21,424
−17,791
−14,174
−10,572
−6,979
−3,384
0,224
3,86
7,531
11,245
15,009
18,83
22,714
26,667
30,694
34,802
38,996
43,285
47,679
52,189
56,821
61,584
66,482
71,522
76,709
82,045
87,529
93,158
98,931
104,849
110,915
117,128
123,479
129,961
136,56
143,26
150,046
156,892
163,761
170,62
177,435
184,179
190,842
197,406
203,851
210,161
216,314
222,3
228,127
233,793
239,293
244,626
249,787
254,792
259,678
264,472
269,188
273,823
278,348
282,737
286,968
291
294,79
298,271
301,351
303,958
306,041
307,543
308,416
308,589
307,964
306,471
304,061
300,708
296,417
291,195
285,048
278,016
270,16
261,567
252,354
242,617
232,425
221,855
210,981
199,893
188,705
177,509
166,373
155,357
144,507
133,866
123,485
113,385
103,562
94,001
84,668
75,546
66,64
57,951
49,482
41,229
33,18
25,333
17,704
10,302
3,138
−3,781
−10,454
−16,866
−22,993
−28,808
−34,281
−39,394
−44,14
−48,512
−52,508
−56,128
−59,376
−62,259
−64,797
−67,003
−68,891
−70,476
−71,768
−72,785
−73,548
−74,079
−74,399
−74,528
−74,486
−74,29
−73,96
−73,513
−72,964
−72,328
−71,615
−70,84
−70,015
−69,154
−68,269
−67,372
−66,474
−65,585
−64,716
−63,875
−63,07
−62,307
−61,592
−60,929
−60,322
−59,776
−59,291
−58,871
−58,516
−58,228
−58,005
−57,847
−57,754
−57,722
−57,75
−57,835
−57,974
−58,164
−58,402
−58,686
−59,011
−59,377
−59,779
−60,216
−60,684
−61,181
−61,704
−62,251
−62,819
−63,406
−64,01
−64,628
−65,259
−65,899
−66,548
−67,203
−67,863
−68,524
−69,186
−69,845
−70,5
−71,149
−71,791
−72,422
−73,043
−73,652
−74,248
−74,829
−75,396
−75,947
−76,482
−76,999
−77,497
−77,975
−78,432
−78,866
−79,276
−79,66
−80,017
−80,346
−80,644
−80,911
−81,144
−81,342
−81,504
−81,628
−81,714
−81,761
−81,768
−81,737
−81,666
−81,558
−81,412
−81,23
−81,013
−80,76
−80,475
−80,156
−79,805
−79,422
−79,009
−78,565
−78,091
−77,588
−77,056
−76,496
−75,909
−75,295
−74,656
−73,991
−73,302
−72,589
−71,853
−71,096
−70,318
−69,52
−68,703
−67,868
−67,014
−66,142
−65,251
−64,34
−63,409
−62,456
−61,479
−60,477
−59,447
−58,389
−57,3
−56,178
−55,022
−53,831
−52,604
−51,338
−50,033
−48,688
−47,302
−45,875
−44,407
−42,897
−41,344
−39,751
−38,115
−36,439
−34,721
−32,963
−31,165
−29,327
−27,45
−25,536
−23,585
−21,6
−19,582
−17,535
−15,46
−13,362
−11,244
−9,11
−6,963
−4,809
−2,652
−0,496
1,655
3,796
5,921
8,028
10,112
12,167
14,191
16,18
18,13
20,039
21,902
23,717
25,481
27,193
28,849
30,447
31,985
33,46
34,872
36,218
37,497
38,709
39,852
40,927
41,934
42,874
43,747
44,555
45,3
45,983
46,608
47,176
47,69
48,154
48,57
48,942
49,273
49,566
49,826
50,053
50,253
50,426
50,577
50,707
50,82
50,916
50,999
51,071
51,134
51,19
51,241
51,289
51,335
51,381
51,428
51,478
51,53
51,586
51,646
51,711
51,779
51,852
51,928
52,006
52,086
52,166
52,245
52,322
52,396
52,464
52,525
52,578
52,622
52,656
52,679
52,689
52,687
52,671
52,642
52,598
52,539
52,465
52,376
52,272
52,151
52,014
51,861
51,692
51,506
51,305
51,087
50,854
50,605
50,341
50,063
49,77
49,463
49,143
48,81
48,465
48,109
47,742
47,365
46,978
46,581
46,175
45,759
45,334
44,897
44,45
43,99
43,517
43,03
42,529
42,013
41,48
40,929
40,36
39,771
39,161
38,53
37,874
37,195
36,489
35,756
34,996
34,206
33,386
32,534
31,652
30,736
29,788
28,806
27,788
26,735
25,647
24,522
23,361
22,165
20,934
19,669
18,371
17,041
15,682
14,294
12,879
11,438
9,974
8,489
6,985
5,464
3,93
2,385
0,834
−0,72
−2,272
−3,819
−5,356
−6,877
−8,38
−9,86
−11,313
−12,737
−14,126
−15,477
−16,786
−18,05
−19,263
−20,419
−21,512
−22,535
−23,483
−24,352
−25,136
−25,833
−26,437
−26,945
−27,358
−27,671
−27,882
−27,985
−27,968
−27,827
−27,563
−27,182
−26,694
−26,107
−25,429
−24,668
−23,843
−22,96
−22,024
−21,029
−19,956
−18,793
−17,542
−16,208
−14,81
−13,356
−11,839
−10,252
−8,585
−6,826
−4,971
−3,001
−0,879
1,404
3,842
6,4
9,013
11,635
14,238
16,8
19,312
21,755
24,093
26,298
28,348
30,212
31,862
33,248
34,295
34,963
35,242
35,155
34,761
34,102
33,194
32,058
30,708
29,166
27,46
25,605
23,595
21,446
19,183
16,851
14,523
12,241
10,025
7,876
5,783
3,742
1,772
−0,123
−1,946
−3,697
−5,37
−6,945
−8,379
−9,654
−10,774
−11,756
−12,629
−13,418
−14,138
−14,821
−15,515
−16,278
−17,167
−18,23
−19,495
−20,988
−22,733
−24,763
−27,122
−29,839
−32,93
−36,384
−40,16
−44,244
−48,617
−53,167
−57,714
−61,95
−65,44
−67,864
−68,963
−68,419
−66,041
−61,815
−55,811
−48,557
−40,924
−33,493
−26,868
−21,83
−18,575
−16,877
−16,569
−15,78
−12,16
−5,081
7,202
24,967
46,324
72,501
103,936
140,77
186,265
240,015
297,726
353,432
395,33
410,791
394,25
345,275
271,54
187,987
103,996
24,18
−50,865
−126,368
−200,535
−265,706
−314,372
−337,425
−334,218
−311,989
−277,571
−239,213
−201,326
−163,387
−126,585
−92,066
−61,205
−36,984
−20,471
−11,021
−7,558
−8,18
−10,8
−13,844
−16,134
−16,667
−15,013
−11,285
−5,845
0,62
7,145
12,831
17,113
19,605
20,223
19,17
16,715
13,255
9,316
5,402
1,863
−1,058
−3,239
−4,66
−5,296
−5,154
−4,285
−2,758
−0,645
1,992
5,091
8,586
12,381
16,36
20,412
24,443
28,386
32,181
35,786
39,168
42,304
45,193
47,838
50,242
52,416
54,374
56,134
57,727
59,189
60,556
61,872
63,169
64,471
65,798
67,162
68,572
70,034
71,552
73,125
74,756
76,451
78,216
80,06
81,989
84,005
86,114
88,318
90,62
93,023
95,532
98,15
100,883
103,737
106,719
109,838
113,101
116,513
120,08
123,805
127,69
131,736
135,941
140,3
144,812
149,473
154,283
159,243
164,351
169,597
174,975
180,471
186,066
191,738
197,455
203,181
208,89
214,56
220,173
225,724
231,202
236,598
241,908
247,115
252,205
257,171
261,994
266,662
271,174
275,537
279,775
283,919
287,979
291,952
295,823
299,555
303,107
306,43
309,456
312,133
314,416
316,259
317,638
318,525
318,876
318,646
317,772
316,179
313,823
310,679
306,732
302,003
296,525
290,349
283,56
276,235
268,433
260,214
251,619
242,689
233,48
224,053
214,475
204,832
195,189
185,604
176,131
166,801
157,631
148,624
139,756
131,007
122,376
113,865
105,489
97,267
89,21
81,33
73,642
66,146
58,849
51,757
44,872
38,204
31,773
25,6
19,718
14,158
8,938
4,072
−0,433
−4,575
−8,356
−11,779
−14,856
−17,595
−20,005
−22,095
−23,873
−25,35
−26,541
−27,463
−28,134
−28,576
−28,808
−28,848
−28,715
−28,426
−27,998
−27,446
−26,784
−26,025
−25,183
−24,273
−23,31
−22,308
−21,281
−20,242
−19,205
−18,181
−17,18
−16,213
−15,288
−14,411
−13,589
−12,829
−12,134
−11,508
−10,955
−10,475
−10,069
−9,739
−9,483
−9,299
−9,185
−9,139
−9,157
−9,235
−9,371
−9,559
−9,797
−10,08
−10,404
−10,766
−11,16
−11,584
−12,033
−12,503
−12,99
−13,49
−13,998
−14,513
−15,029
−15,545
−16,058
−16,565
−17,064
−17,553
−18,031
−18,497
−18,948
−19,386
−19,809
−20,218
−20,613
−20,996
−21,367
−21,729
−22,082
−22,428
−22,769
−23,106
−23,441
−23,774
−24,109
−24,445
−24,784
−25,127
−25,474
−25,828
−26,188
−26,554
−26,927
−27,308
−27,695
−28,09
−28,491
−28,899
−29,313
−29,733
−30,158
−30,589
−31,025
−31,464
−31,905
−32,349
−32,793
−33,236
−33,676
−34,112
−34,542
−34,964
−35,378
−35,781
−36,172
−36,549
−36,912
−37,259
−37,589
−37,902
−38,196
−38,473
−38,731
−38,97
−39,191
−39,394
−39,58
−39,75
−39,904
−40,042
−40,166
−40,276
−40,373
−40,457
−40,531
−40,594
−40,648
−40,693
−40,732
−40,765
−40,793
−40,819
−40,843
−40,868
−40,894
−40,923
−40,957
−40,997
−41,045
−41,102
−41,17
−41,248
−41,339
−41,443
−41,561
−41,692
−41,839
−42
−42,177
−42,368
−42,576
−42,798
−43,037
−43,29
−43,56
−43,845
−44,146
−44,463
−44,795
−45,143
−45,507
−45,886
−46,281
−46,69
−47,115
−47,553
−48,004
−48,469
−48,945
−49,434
−49,932
−50,441
−50,959
−51,485
−52,019
−52,56
−53,108
−53,661
−54,219
−54,781
−55,346
−55,913
−56,481
−57,05
−57,618
−58,184
−58,748
−59,307
−59,861
−60,408
−60,947
−61,475
−61,992
−62,495
−62,983
−63,455
−63,909
−64,344
−64,758
−65,15
−65,52
−65,864
−66,184
−66,477
−66,742
−66,979
−67,186
−67,363
−67,509
−67,624
−67,707
−67,759
−67,778
−67,765
−67,721
−67,645
−67,537
−67,399
−67,232
−67,035
−66,81
−66,558
−66,282
−65,981
−65,659
−65,316
−64,954
−64,576
−64,183
−63,776
−63,358
−62,929
−62,492
−62,049
−61,6
−61,147
−60,692
−60,237
−59,782
−59,33
−58,881
−58,436
−57,996
−57,561
−57,133
−56,711
−56,296
−55,888
−55,487
−55,093
−54,706
−54,326
−53,952
−53,583
−53,219
−52,859
−52,501
−52,146
−51,791
−51,437
−51,082
−50,725
−50,366
−50,004
−49,639
−49,271
−48,899
−48,523
−48,142
−47,756
−47,366
−46,97
−46,57
−46,166
−45,758
−45,347
−44,934
−44,521
−44,109
−43,699
−43,292
−42,891
−42,497
−42,111
−41,737
−41,374
−41,027
−40,697
−40,386
−40,097
−39,833
−39,595
−39,387
−39,209
−39,063
−38,952
−38,876
−38,837
−38,836
−38,874
−38,953
−39,073
−39,236
−39,442
−39,691
−39,983
−40,319
−40,698
−41,117
−41,577
−42,074
−42,608
−43,177
−43,776
−44,403
−45,057
−45,734
−46,431
−47,147
−47,877
−48,617
−49,365
−50,118
−50,871
−51,617
−52,35
−53,063
−53,752
−54,41
−55,034
−55,618
−56,156
−56,643
−57,079
−57,46
−57,78
−58,032
−58,202
−58,285
−58,28
−58,191
−58,025
−57,789
−57,484
−57,119
−56,706
−56,251
−55,753
−55,201
−54,573
−53,856
−53,048
−52,152
−51,185
−50,152
−49,043
−47,85
−46,558
−45,149
−43,615
−41,932
−40,059
−37,985
−35,715
−33,282
−30,748
−28,159
−25,546
−22,929
−20,315
−17,716
−15,161
−12,675
−10,286
−8,035
−5,958
−4,11
−2,573
−1,397
−0,604
−0,183
−0,069
−0,207
−0,564
−1,107
−1,822
−2,702
−3,729
−4,893
−6,183
−7,568
−9,017
−10,483
−11,88
−13,14
−14,204
−15,041
−15,678
−16,157
−16,509
−16,759
−16,919
−16,984
−16,948
−16,807
−16,546
−16,168
−15,681
−15,1
−14,482
−13,905
−13,466
−13,267
−13,356
−13,747
−14,446
−15,451
−16,776
−18,463
−20,543
−23,047
−26,014
−29,452
−33,391
−37,899
−42,913
−48,256
−53,638
−58,607
−62,799
−66,022
−67,995
−68,377
−67,097
−64,218
−60,095
−55,553
−51,119
−46,97
−43,475
−40,936
−39,255
−38,191
−36,892
−33,635
−27,207
−16,862
−1,406
20,198
48,643
84,713
127,087
172,07
217,03
259,482
299,401
340,414
382,3
422,027
451,811
457,379
430,11
366,779
271,655
160,598
48,466
−51,282
−128,732
−184,092
−220,593
−244,149
−260,943
−272,203
−276,562
−270,726
−252,909
−224,865
−190,084
−152,996
−116,767
−82,859
−52,647
−27,642
−8,71
3,938
10,689
12,566
10,588
5,603
−0,969
−7,189
−11,792
−14,159
−14,091
−11,961
−8,136
−2,882
3,058
8,597
13,062
16,15
17,864
18,546
18,446
17,717
16,682
15,78
15,325
15,498
16,332
17,71
19,549
21,814
24,447
27,367
30,48
33,687
36,895
40,052
43,128
46,087
48,902
51,54
53,967
56,169
58,155
59,937
61,526
62,927
64,143
65,186
66,087
66,882
67,613
68,312
69,002
69,702
70,433
71,214
72,06
72,982
73,978
75,053
76,213
77,469
78,833
80,315
81,918
83,646
85,502
87,489
89,612
91,872
94,269
96,802
99,473
102,286
105,246
108,356
111,618
115,033
118,602
122,326
126,204
130,235
134,412
138,73
143,181
147,761
152,469
157,303
162,26
167,327
172,496
177,754
183,084
188,466
193,872
199,261
204,604
209,879
215,07
220,17
225,169
230,056
234,824
239,464
243,969
248,34
252,567
256,637
260,549
264,309
267,94
271,485
274,967
278,383
281,721
284,956
288,051
290,972
293,667
296,068
298,115
299,753
300,941
301,656
301,856
301,489
300,489
298,772
296,28
292,989
288,883
283,967
278,263
271,802
264,649
256,901
248,637
239,926
230,828
221,38
211,64
201,677
191,57
181,407
171,262
161,19
151,242
141,467
131,891
122,533
113,389
104,423
95,62
86,977
78,501
70,212
62,123
54,237
46,561
39,103
31,867
24,867
18,11
11,599
5,347
−0,628
−6,3
−11,631
−16,597
−21,183
−25,379
−29,184
−32,599
−35,625
−38,27
−40,547
−42,47
−44,052
−45,305
−46,24
−46,873
−47,222
−47,309
−47,157
−46,79
−46,228
−45,495
−44,611
−43,597
−42,473
−41,257
−39,966
−38,617
−37,229
−35,819
−34,406
−33,008
−31,641
−30,321
−29,063
−27,881
−26,786
−25,791
−24,902
−24,128
−23,476
−22,951
−22,557
−22,297
−22,174
−22,187
−22,337
−22,624
−23,045
−23,598
−24,279
−25,084
−26,009
−27,048
−28,196
−29,446
−30,793
−32,23
−33,749
−35,343
−37,004
−38,725
−40,497
−42,311
−44,16
−46,035
−47,929
−49,833
−51,74
−53,645
−55,542
−57,424
−59,287
−61,126
−62,938
−64,718
−66,465
−68,174
−69,844
−71,474
−73,061
−74,606
−76,108
−77,566
−78,981
−80,352
−81,68
−82,965
−84,209
−85,412
−86,577
−87,705
−88,798
−89,859
−90,89
−91,894
−92,874
−93,832
−94,771
−95,693
−96,6
−97,495
−98,38
−99,255
−100,124
−100,988
−101,847
−102,703
−103,556
−104,407
−105,257
−106,104
−106,95
−107,794
−108,635
−109,474
−110,311
−111,144
−111,974
−112,8
−113,62
−114,435
−115,242
−116,04
−116,828
−117,603
−118,365
−119,111
−119,839
−120,548
−121,237
−121,903
−122,544
−123,16
−123,748
−124,308
−124,837
−125,335
−125,799
−126,231
−126,628
−126,99
−127,316
−127,605
−127,858
−128,073
−128,25
−128,387
−128,484
−128,541
−128,557
−128,532
−128,465
−128,357
−128,208
−128,019
−127,789
−127,52
−127,213
−126,867
−126,484
−126,064
−125,609
−125,12
−124,597
−124,042
−123,456
−122,84
−122,195
−121,522
−120,822
−120,097
−119,346
−118,572
−117,774
−116,956
−116,118
−115,262
−114,391
−113,505
−112,608
−111,7
−110,784
−109,861
−108,933
−108,001
−107,067
−106,131
−105,196
−104,262
−103,329
−102,4
−101,473
−100,551
−99,634
−98,721
−97,814
−96,912
−96,016
−95,127
−94,244
−93,368
−92,5
−91,64
−90,789
−89,947
−89,113
−88,287
−87,468
−86,657
−85,851
−85,051
−84,254
−83,46
−82,668
−81,877
−81,086
−80,294
−79,502
−78,708
−77,911
−77,111
−76,309
−75,504
−74,696
−73,885
−73,072
−72,258
−71,443
−70,627
−69,811
−68,995
−68,179
−67,364
−66,549
−65,735
−64,922
−64,11
−63,3
−62,492
−61,689
−60,89
−60,098
−59,313
−58,538
−57,772
−57,019
−56,278
−55,551
−54,84
−54,146
−53,469
−52,812
−52,173
−51,555
−50,957
−50,38
−49,823
−49,285
−48,768
−48,269
−47,789
−47,328
−46,884
−46,459
−46,051
−45,66
−45,287
−44,931
−44,592
−44,268
−43,959
−43,664
−43,383
−43,113
−42,854
−42,604
−42,363
−42,128
−41,9
−41,676
−41,456
−41,238
−41,021
−40,805
−40,588
−40,371
−40,152
−39,934
−39,715
−39,496
−39,279
−39,065
−38,854
−38,647
−38,447
−38,253
−38,068
−37,893
−37,728
−37,577
−37,44
−37,32
−37,218
−37,138
−37,081
−37,049
−37,044
−37,07
−37,127
−37,219
−37,346
−37,511
−37,716
−37,961
−38,249
−38,58
−38,955
−39,375
−39,838
−40,345
−40,895
−41,485
−42,114
−42,78
−43,48
−44,211
−44,97
−45,752
−46,555
−47,373
−48,201
−49,035
−49,868
−50,695
−51,51
−52,305
−53,073
−53,809
−54,505
−55,154
−55,751
−56,288
−56,759
−57,158
−57,479
−57,717
−57,866
−57,922
−57,88
−57,736
−57,487
−57,131
−56,666
−56,09
−55,404
−54,606
−53,699
−52,684
−51,563
−50,339
−49,016
−47,599
−46,094
−44,508
−42,849
−41,125
−39,347
−37,525
−35,672
−33,799
−31,918
−30,042
−28,184
−26,355
−24,568
−22,835
−21,167
−19,576
−18,074
−16,673
−15,385
−14,222
−13,192
−12,306
−11,573
−11,001
−10,6
−10,373
−10,324
−10,456
−10,774
−11,287
−11,997
−12,9
−13,991
−15,26
−16,696
−18,287
−20,012
−21,844
−23,751
−25,704
−27,675
−29,647
−31,599
−33,507
−35,341
−37,067
−38,663
−40,121
−41,435
−42,608
−43,642
−44,544
−45,35
−46,116
−46,904
−47,784
−48,807
−50,015
−51,453
−53,154
−55,161
−57,535
−60,291
−63,435
−66,951
−70,779
−74,904
−79,359
−84,032
−88,726
−93,192
−97,043
−99,995
−101,882
−102,348
−100,994
−97,698
−92,499
−85,73
−78,053
−70,044
−62,225
−55,361
−50,33
−46,618
−42,613
−37,112
−28,279
−17,082
−7,392
1,168
9,753
21,95
47,279
88,711
147,001
222,655
305,243
384,047
445,808
472,216
456,636
401,455
317,467
223,585
132,33
47,556
−32,357
−110,204
−184,733
−249,654
−297,674
−327,203
−339,456
−337,746
−326,309
−305,016
−274,71
−237,698
−195,622
−152,472
−111,474
−74,35
−43,56
−20,369
−4,647
3,787
5,848
3,237
−2,727
−10,4
−17,5
−22,625
−25,154
−24,737
−21,705
−16,724
−10,281
−3,254
3,119
8,181
11,661
13,515
14,125
13,844
12,906
11,725
10,801
10,429
10,78
11,892
13,634
15,928
18,735
21,972
25,556
29,394
33,387
37,453
41,519
45,524
49,414
53,14
56,653
59,92
62,919
65,65
68,127
70,359
72,352
74,118
75,666
77,023
78,224
79,307
80,312
81,275
82,221
83,178
84,171
85,216
86,329
87,518
88,783
90,132
91,577
93,129
94,801
96,599
98,532
100,604
102,82
105,186
107,704
110,376
113,205
116,192
119,344
122,665
126,162
129,838
133,694
137,733
141,956
146,361
150,947
155,707
160,634
165,722
170,968
176,369
181,923
187,616
193,436
199,367
205,391
211,489
217,631
223,782
229,905
235,965
241,94
247,818
253,585
259,225
264,722
270,058
275,228
280,24
285,098
289,8
294,349
298,746
303,012
307,192
311,316
315,405
319,46
323,452
327,359
331,158
334,811
338,275
341,486
344,351
346,802
348,788
350,251
351,142
351,389
350,891
349,571
347,379
344,286
340,295
335,412
329,643
323,027
315,624
307,518
298,823
289,631
280,006
270,021
259,746
249,268
238,699
228,127
217,616
207,225
196,991
186,955
177,159
167,618
158,324
149,255
140,374
131,661
123,118
114,744
106,541
98,504
90,618
82,883
75,312
67,916
60,707
53,695
46,883
40,288
33,941
27,87
22,109
16,679
11,59
6,851
2,467
−1,559
−5,226
−8,543
−11,522
−14,177
−16,518
−18,556
−20,303
−21,772
−22,985
−23,961
−24,719
−25,278
−25,658
−25,875
−25,947
−25,892
−25,726
−25,461
−25,112
−24,693
−24,218
−23,703
−23,162
−22,609
−22,057
−21,519
−21,007
−20,533
−20,106
−19,735
−19,427
−19,19
−19,029
−18,95
−18,955
−19,048
−19,23
−19,502
−19,865
−20,318
−20,859
−21,486
−22,196
−22,986
−23,853
−24,794
−25,802
−26,876
−28,009
−29,197
−30,436
−31,72
−33,043
−34,401
−35,788
−37,2
−38,629
−40,072
−41,523
−42,976
−44,427
−45,87
−47,302
−48,717
−50,111
−51,481
−52,824
−54,137
−55,417
−56,662
−57,87
−59,041
−60,173
−61,266
−62,32
−63,333
−64,307
−65,241
−66,136
−66,994
−67,814
−68,597
−69,345
−70,058
−70,738
−71,386
−72,001
−72,586
−73,141
−73,668
−74,167
−74,64
−75,089
−75,515
−75,92
−76,306
−76,674
−77,025
−77,362
−77,686
−77,998
−78,299
−78,59
−78,872
−79,146
−79,413
−79,673
−79,925
−80,171
−80,411
−80,644
−80,869
−81,087
−81,297
−81,5
−81,694
−81,88
−82,058
−82,228
−82,389
−82,543
−82,69
−82,829
−82,96
−83,084
−83,201
−83,309
−83,41
−83,502
−83,586
−83,66
−83,725
−83,78
−83,825
−83,86
−83,883
−83,896
−83,897
−83,886
−83,865
−83,833
−83,791
−83,738
−83,677
−83,608
−83,532
−83,449
−83,361
−83,267
−83,169
−83,068
−82,963
−82,855
−82,744
−82,63
−82,514
−82,396
−82,276
−82,154
−82,03
−81,905
−81,779
−81,651
−81,524
−81,396
−81,269
−81,144
−81,02
−80,898
−80,778
−80,662
−80,548
−80,438
−80,331
−80,226
−80,123
−80,023
−79,923
−79,823
−79,723
−79,622
−79,518
−79,41
−79,299
−79,184
−79,063
−78,937
−78,806
−78,668
−78,525
−78,375
−78,22
−78,058
−77,891
−77,717
−77,537
−77,35
−77,158
−76,958
−76,752
−76,539
−76,319
−76,092
−75,858
−75,616
−75,367
−75,11
−74,847
−74,578
−74,304
−74,024
−73,742
−73,456
−73,17
−72,883
−72,597
−72,313
−72,032
−71,753
−71,478
−71,207
−70,939
−70,675
−70,415
−70,158
−69,903
−69,65
−69,398
−69,146
−68,892
−68,636
−68,377
−68,112
−67,842
−67,564
−67,278
−66,983
−66,676
−66,358
−66,026
−65,678
−65,313
−64,929
−64,524
−64,096
−63,641
−63,159
−62,647
−62,103
−61,527
−60,915
−60,268
−59,583
−58,862
−58,103
−57,306
−56,473
−55,604
−54,7
−53,764
−52,798
−51,804
−50,785
−49,745
−48,687
−47,614
−46,531
−45,44
−44,346
−43,252
−42,163
−41,082
−40,014
−38,965
−37,938
−36,938
−35,97
−35,039
−34,15
−33,307
−32,515
−31,777
−31,097
−30,48
−29,927
−29,443
−29,029
−28,686
−28,417
−28,221
−28,098
−28,047
−28,066
−28,154
−28,305
−28,518
−28,788
−29,111
−29,482
−29,895
−30,346
−30,829
−31,338
−31,865
−32,405
−32,95
−33,493
−34,026
−34,541
−35,032
−35,49
−35,908
−36,279
−36,595
−36,85
−37,037
−37,149
−37,182
−37,128
−36,984
−36,745
−36,407
−35,968
−35,426
−34,779
−34,029
−33,175
−32,22
−31,164
−30,011
−28,764
−27,427
−26,005
−24,503
−22,928
−21,286
−19,586
−17,835
−16,043
−14,22
−12,376
−10,523
−8,671
−6,832
−5,017
−3,238
−1,505
0,169
1,775
3,302
4,74
6,078
7,305
8,413
9,393
10,236
10,935
11,482
11,871
12,096
12,157
12,054
11,787
11,355
10,754
9,985
9,054
7,967
6,736
5,37
3,882
2,292
0,629
−1,074
−2,787
−4,488
−6,163
−7,796
−9,372
−10,865
−12,248
−13,508
−14,636
−15,627
−16,48
−17,19
−17,76
−18,222
−18,635
−19,069
−19,586
−20,225
−21,007
−21,945
−23,061
−24,399
−26
−27,888
−30,084
−32,578
−35,385
−38,582
−42,129
−45,85
−49,465
−52,535
−54,656
−55,606
−55,088
−52,735
−48,555
−42,76
−35,823
−28,727
−22,263
−16,904
−13,318
−11,985
−12,631
−14,592
−16,722
−17,161
−14,178
−6,069
9,042
32,691
64,671
102,934
146,301
193,649
244,61
300,508
357,084
405,808
438,655
446,182
426,233
384,708
327,733
264,118
198,194
128,108
53,057
−28,581
−112,5
−188,442
−247,911
−283,022
−293,311
−285,414
−264,96
−238,558
−209,76
−177,773
−143,482
−107,87
−72,378
−40,471
−14,665
4,259
16,5
23,229
25,92
25,608
23,101
19,697
17,056
16,181
17,452
20,807
25,67
31,558
38,166
44,829
50,634
55,032
57,788
58,951
58,904
57,985
56,444
54,641
53,004
51,844
51,354
51,608
52,548
54,117
56,286
59,003
62,194
65,791
69,723
73,921
78,325
82,861
87,436
91,978
96,424
100,713
104,809
108,685
112,324
115,727
118,904
121,861
124,608
127,162
129,541
131,771
133,882
135,905
137,876
139,826
141,779
143,756
145,771
147,834
149,954
152,133
154,371
156,671
159,037
161,473
163,985
166,578
169,255
172,021
174,878
177,828
180,873
184,018
187,265
190,617
194,074
197,64
201,316
205,106
209,011
213,032
217,168
221,421
225,787
230,267
234,858
239,557
244,355
249,245
254,218
259,269
264,394
269,586
274,831
280,113
285,416
290,719
296,004
301,242
306,395
311,426
316,3
320,992
325,489
329,774
333,829
337,638
341,177
344,441
347,438
350,169
352,63
354,819
356,732
358,387
359,83
361,096
362,213
363,191
364,018
364,689
365,21
365,563
365,725
365,65
365,258
364,496
363,329
361,713
359,611
356,958
353,646
349,59
344,722
338,98
332,334
324,748
316,172
306,608
296,086
284,669
272,465
259,557
246,011
231,917
217,363
202,466
187,394
172,291
157,296
142,568
128,24
114,448
101,35
89,039
77,574
66,989
57,275
48,435
40,479
33,39
27,137
21,682
16,945
12,848
9,316
6,229
3,485
0,983
−1,395
−3,724
−6,054
−8,43
−10,869
−13,385
−15,997
−18,707
−21,509
−24,403
−27,367
−30,378
−33,409
−36,406
−39,323
−42,126
−44,773
−47,245
−49,531
−51,623
−53,525
−55,254
−56,82
−58,239
−59,531
−60,708
−61,788
−62,794
−63,748
−64,681
−65,622
−66,588
−67,596
−68,659
−69,784
−70,979
−72,244
−73,573
−74,963
−76,409
−77,908
−79,456
−81,052
−82,689
−84,36
−86,06
−87,781
−89,521
−91,276
−93,04
−94,81
−96,584
−98,36
−100,137
−101,913
−103,686
−105,452
−107,207
−108,95
−110,675
−112,381
−114,063
−115,719
−117,344
−118,938
−120,499
−122,024
−123,512
−124,963
−126,374
−127,746
−129,078
−130,37
−131,622
−132,834
−134,007
−135,141
−136,236
−137,293
−138,313
−139,296
−140,241
−141,15
−142,024
−142,862
−143,665
−144,435
−145,172
−145,878
−146,554
−147,202
−147,824
−148,421
−148,997
−149,554
−150,093
−150,618
−151,13
−151,631
−152,124
−152,61
−153,091
−153,567
−154,041
−154,513
−154,985
−155,457
−155,93
−156,404
−156,88
−157,358
−157,838
−158,322
−158,808
−159,297
−159,789
−160,285
−160,784
−161,287
−161,793
−162,302
−162,812
−163,324
−163,835
−164,344
−164,849
−165,346
−165,836
−166,317
−166,786
−167,245
−167,688
−168,113
−168,522
−168,916
−169,288
−169,631
−169,94
−170,208
−170,441
−170,652
−170,834
−170,978
−171,113
−171,261
−171,44
−171,675
−171,951
−172,234
−172,541
−172,911
−173,235
−173,378
−173,431
−173,403
−173,264
−173,282
−172,748
−170,964
−168,985
−167,155
−167,357
−171,827
−178,079
−184,484
−188,442
−186,398
−181,467
−176,217
−172,386
−173,17
−175,733
−177,23
−178,245
−177,812
−178,608
−183,905
−190,958
−198,184
−202,975
−201,645
−197,405
−192,969
−190,093
−191,726
−195,758
−200,033
−204,061
−206,521
−208,149
−209,89
−211,56
−213,283
−214,983
−216,453
−217,813
−219,158
−220,445
−221,663
−222,813
−223,885
−224,863
−225,738
−226,484
−227,073
−227,512
−227,804
−227,943
−227,927
−227,755
−227,423
−226,934
−226,291
−225,492
−224,538
−223,432
−222,175
−220,772
−219,227
−217,544
−215,73
−213,789
−211,73
−209,558
−207,281
−204,908
−202,446
−199,903
−197,289
−194,611
−191,878
−189,098
−186,278
−183,427
−180,552
−177,659
−174,755
−171,844
−168,932
−166,023
−163,12
−160,229
−157,35
−154,484
−151,635
−148,807
−146,005
−143,229
−140,482
−137,761
−135,067
−132,409
−129,783
−127,173
−124,568
−121,955
−119,332
−116,723
−114,127
−111,52
−108,921
−106,38
−103,933
−101,627
−99,46
−97,368
−95,336
−93,436
−91,586
−89,535
−87,248
−84,794
−82,143
−79,589
−76,559
−71,496
−64,866
−58,056
−53,55
−55,826
−64,265
−74,466
−81,919
−80,24
−69,502
−55,649
−43,24
−37,349
−38,483
−42,172
−45,797
−47,423
−46,624
−45,247
−44,041
−42,968
−42,086
−41,1
−39,947
−38,879
−37,97
−37,146
−36,389
−35,688
−35,001
−34,334
−33,701
−33,031
−32,262
−31,524
−30,951
−30,457
−30,046
−29,736
−29,235
−29,33
−30,783
−32,499
−34,144
−33,713
−28,808
−22,084
−15,31
−11,122
−13,142
−18,17
−23,5
−27,276
−26,431
−23,169
−19,72
−16,587
−15,134
−14,578
−13,914
−13,341
−12,737
−12,178
−11,877
−11,709
−11,572
−11,511
−11,539
−11,648
−11,849
−12,154
−12,57
−13,119
−13,828
−14,69
−15,702
−16,871
−18,193
−19,665
−21,278
−23,019
−24,87
−26,814
−28,825
−30,876
−32,938
−34,985
−36,993
−38,936
−40,79
−42,524
−44,104
−45,511
−46,731
−47,756
−48,589
−49,235
−49,709
−50,05
−50,313
−50,554
−50,832
−51,201
−51,724
−52,471
−53,504
−54,872
−56,599
−58,692
−61,163
−64,002
−67,181
−70,662
−74,345
−78,134
−81,981
−85,739
−89,206
−92,164
−94,215
−94,953
−94,217
−91,762
−87,316
−80,981
−72,831
−62,997
−52,288
−41,623
−31,466
−22,408
−14,129
−4,528
7,94
23,432
40,169
53,404
59,087
59,538
63,659
83,919
131,557
205,292
290,468
366,299
410,924
415,045
383,275
327,078
262,226
197,926
135,983
75,756
13,943
−49,613
−111,288
−167,16
−212,757
−245,333
−264,844
−272,4
−269,707
−258,611
−240,866
−218,109
−192,41
−166,077
−140,735
−117,45
−96,814
−78,898
−63,822
−51,967
−43,096
−36,49
−31,501
−27,341
−23,601
−20,345
−17,409
−14,39
−11,235
−8,126
−5,378
−3,586
−3,008
−3,523
−5,078
−7,632
−11,018
−15,03
−19,343
−23,468
−27,08
−30,036
−32,215
−33,577
−34,102
−33,758
−32,585
−30,69
−28,17
−25,112
−21,613
−17,754
−13,639
−9,405
−5,153
−0,967
3,078
6,938
10,578
13,969
17,103
19,988
22,63
25,042
27,245
29,256
31,106
32,83
34,466
36,06
37,649
39,261
40,922
42,649
44,454
46,348
48,336
50,42
52,602
54,891
57,294
59,819
62,475
65,266
68,199
71,279
74,511
77,9
81,455
85,18
89,085
93,175
97,458
101,943
106,633
111,533
116,645
121,967
127,499
133,24
139,184
145,327
151,663
158,185
164,883
171,75
178,773
185,94
193,238
200,651
208,161
215,751
223,401
231,089
238,796
246,496
254,168
261,785
269,324
276,758
284,062
291,209
298,173
304,926
311,443
317,697
323,663
329,315
334,628
339,58
344,147
348,308
352,045
355,338
358,167
360,513
362,361
363,698
364,517
364,809
364,558
363,765
362,441
360,598
358,25
355,405
352,047
348,184
343,85
339,044
333,732
327,896
321,515
314,605
307,256
299,509
291,326
282,805
274,217
265,644
257,045
248,484
239,733
231,315
224,768
219,793
215,045
208,271
195,222
176,223
155,591
137,636
128,469
128,46
131,892
134,362
131,076
121,229
109,168
97,56
88,242
81,785
76,425
71,337
66,607
62,219
58,33
54,876
51,697
48,711
45,928
43,612
40,99
37,327
33,669
30,343
29,299
32,836
38,369
44,179
47,724
45,514
40,609
35,596
32,238
33,469
37,171
41,192
45,047
47,413
49,034
50,871
52,735
54,747
56,831
58,772
60,674
62,621
64,563
66,491
68,416
70,327
72,194
73,983
75,647
77,161
78,548
79,838
81,031
82,106
83,038
83,851
84,646
85,492
86,341
87,02
87,329
87,202
86,801
86,362
85,932
85,527
85,375
85,977
88,065
92,183
98,149
105,289
113,088
121,088
128,706
135,15
139,115
139,362
135,81
129,313
120,86
111,544
102,28
93,873
87,725
85,361
87,203
92,722
100,934
110,501
120,506
130,429
139,355
146,226
150,577
152,472
152,461
151,505
150,171
148,642
147,213
146,201
145,808
146,138
147,02
148,062
149,067
150,003
150,876
151,741
152,573
153,302
153,941
154,513
154,987
155,353
155,56
155,535
155,338
155,048
154,678
154,397
154,512
155,027
155,8
156,903
157,966
159,193
162,096
166,343
170,391
172,054
165,799
149,958
129,08
109,294
101,932
114,17
141,423
174,934
200,122
204,9
190,252
163,658
137,202
121,704
118,048
121,058
124,256
123,372
120,833
122,979
132,957
149,753
166,781
174,18
168,417
150,86
127,373
108,621
99,168
99,595
108,461
118,457
125,699
129,005
126,905
122,459
117,811
113,285
110,099
107,545
104,817
102,166
99,443
96,724
94,215
91,767
89,242
86,628
83,904
81,06
78,115
75,086
71,978
68,812
65,615
62,387
59,125
55,837
52,525
49,191
45,841
42,476
39,1
35,717
32,332
28,95
25,574
22,208
18,855
15,517
12,197
8,898
5,622
2,369
−0,858
−4,057
−7,229
−10,37
−13,48
−16,559
−19,604
−22,616
−25,595
−28,539
−31,45
−34,328
−37,173
−39,985
−42,767
−45,517
−48,238
−50,929
−53,593
−56,229
−58,838
−61,422
−63,983
−66,52
−69,036
−71,531
−74,007
−76,463
−78,9
−81,319
−83,719
−86,1
−88,462
−90,804
−93,126
−95,428
−97,71
−99,972
−102,213
−104,433
−106,631
−108,805
−110,956
−113,081
−115,178
−117,246
−119,284
−121,29
−123,264
−125,203
−127,108
−128,978
−130,811
−132,607
−134,364
−136,08
−137,753
−139,383
−140,967
−142,505
−143,997
−145,441
−146,839
−148,189
−149,493
−150,75
−151,962
−153,125
−154,239
−155,306
−156,326
−157,299
−158,229
−159,114
−159,954
−160,755
−161,526
−162,261
−162,955
−163,606
−164,208
−164,768
−165,301
−165,796
−166,24
−166,664
−167,093
−167,547
−168,058
−168,607
−169,153
−169,729
−170,373
−170,968
−171,381
−171,684
−171,865
−171,916
−172,133
−171,738
−170,021
−168,092
−166,274
−166,587
−171,425
−178,079
−184,742
−188,768
−186,371
−180,594
−174,278
−169,291
−168,606
−170,384
−171,946
−172,158
−170,615
−168,458
−168,311
−172,747
−181,087
−191,312
−199,188
−198,993
−189,112
−172,215
−154,922
−144,931
−146,958
−159,57
−175,806
−189,306
−195,405
−193,897
−189,388
−184,99
−182,598
−182,664
−183,304
−183,615
−183,567
−183,019
−182,223
−181,213
−179,686
−177,524
−174,77
−171,459
−167,647
−163,426
−158,879
−154,098
−149,209
−144,312
−139,463
−134,746
−130,248
−126,038
−122,195
−118,798
−115,912
−113,609
−111,921
−110,832
−110,325
−110,357
−110,88
−111,84
−113,159
−114,762
−116,592
−118,596
−120,728
−122,952
−125,217
−127,478
−129,687
−131,786
−133,738
−135,531
−137,15
−138,596
−139,877
−140,999
−141,998
−142,904
−143,733
−144,499
−145,201
−145,827
−146,371
−146,821
−147,157
−147,386
−147,512
−147,523
−147,435
−147,274
−147,069
−146,867
−146,694
−146,544
−146,438
−146,408
−146,498
−146,776
−147,296
−148,099
−149,253
−150,849
−152,905
−155,36
−158,031
−160,606
−162,802
−164,422
−165,273
−165,127
−163,879
−161,655
−158,852
−156,14
−154,093
−152,965
−152,844
−153,788
−155,822
−158,656
−161,28
−162,37
−160,081
−152,013
−137,396
−116,287
−89,83
−62,734
−37,081
−10,949
18,977
61,25
119,738
187,882
254,886
303,603
320,775
305,231
262,148
203,326
140,254
77,73
16,606
−45,503
−110,416
−176,33
−238,87
−292,665
−334,154
−362,114
−376,848
−379,412
−370,18
−350,076
−321,523
−287,356
−250,554
−213,717
−178,461
−146,441
−119,852
−99,896
−86,576
−79,326
−76,866
−77,931
−81,688
−86,787
−91,317
−94,076
−94,531
−92,594
−88,806
−83,651
−77,398
−70,719
−64,595
−59,631
−56,113
−54,019
−52,955
−52,627
−52,872
−53,384
−53,783
−53,778
−53,184
−51,959
−50,199
−47,984
−45,35
−42,351
−39,045
−35,509
−31,825
−28,07
−24,315
−20,605
−16,977
−13,467
−10,106
−6,929
−3,959
−1,199
1,366
3,743
5,945
7,975
9,838
11,556
13,163
14,693
16,186
17,673
19,174
20,713
22,312
23,988
25,758
27,626
29,594
31,668
33,855
36,165
38,608
41,189
43,911
46,776
49,788
52,95
56,265
59,735
63,361
67,147
71,096
75,212
79,499
83,957
88,589
93,393
98,368
103,511
108,818
114,286
119,909
125,68
131,593
137,638
143,807
150,09
156,473
162,946
169,492
176,098
182,749
189,428
196,119
202,806
209,473
216,102
222,676
229,176
235,582
241,873
248,026
254,018
259,825
265,423
270,788
275,899
280,733
285,268
289,487
293,37
296,894
300,039
302,779
305,095
306,968
308,388
309,347
309,842
309,879
309,465
308,609
307,319
305,597
303,44
300,836
297,775
294,248
290,253
285,801
280,902
275,564
269,796
263,601
256,975
249,91
242,389
234,394
225,919
216,975
207,596
197,837
187,763
177,455
166,978
156,389
145,74
135,081
124,464
113,942
103,577
93,439
83,61
74,179
65,223
56,795
48,922
41,6
34,805
28,495
22,632
17,192
12,151
7,498
3,217
−0,704
−4,284
−7,547
−10,531
−13,29
−15,87
−18,305
−20,611
−22,783
−24,802
−26,633
−28,248
−29,627
−30,756
−31,633
−32,261
−32,651
−32,812
−32,759
−32,498
−32,025
−31,339
−30,441
−29,342
−28,062
−26,629
−25,076
−23,435
−21,738
−20,01
−18,271
−16,537
−14,82
−13,126
−11,459
−9,826
−8,234
−6,693
−5,212
−3,799
−2,455
−1,185
0,012
1,137
2,191
3,178
4,097
4,952
5,742
6,466
7,125
7,718
8,246
8,71
9,114
9,459
9,75
9,989
10,182
10,33
10,438
10,508
10,543
10,545
10,516
10,458
10,374
10,264
10,132
9,977
9,803
9,61
9,4
9,173
8,931
8,676
8,406
8,124
7,829
7,523
7,205
6,877
6,538
6,19
5,833
5,467
5,094
4,713
4,325
3,931
3,531
3,126
2,717
2,304
1,89
1,476
1,062
0,651
0,243
−0,159
−0,554
−0,941
−1,319
−1,685
−2,04
−2,38
−2,706
−3,015
−3,307
−3,58
−3,834
−4,067
−4,278
−4,466
−4,631
−4,773
−4,89
−4,984
−5,053
−5,098
−5,12
−5,12
−5,097
−5,054
−4,992
−4,912
−4,816
−4,706
−4,583
−4,451
−4,311
−4,165
−4,015
−3,864
−3,713
−3,564
−3,421
−3,284
−3,156
−3,038
−2,934
−2,844
−2,771
−2,717
−2,684
−2,672
−2,685
−2,723
−2,787
−2,879
−2,999
−3,147
−3,326
−3,533
−3,769
−4,034
−4,327
−4,647
−4,992
−5,361
−5,753
−6,165
−6,597
−7,045
−7,508
−7,984
−8,471
−8,968
−9,471
−9,979
−10,491
−11,003
−11,514
−12,021
−12,524
−13,019
−13,506
−13,981
−14,444
−14,893
−15,327
−15,744
−16,142
−16,522
−16,882
−17,223
−17,542
−17,842
−18,123
−18,384
−18,628
−18,855
−19,067
−19,265
−19,452
−19,63
−19,8
−19,964
−20,124
−20,284
−20,444
−20,608
−20,777
−20,953
−21,139
−21,337
−21,548
−21,774
−22,017
−22,278
−22,558
−22,859
−23,182
−23,527
−23,897
−24,29
−24,708
−25,151
−25,618
−26,109
−26,624
−27,16
−27,716
−28,292
−28,884
−29,49
−30,109
−30,737
−31,372
−32,011
−32,651
−33,288
−33,921
−34,544
−35,156
−35,754
−36,334
−36,895
−37,433
−37,947
−38,435
−38,895
−39,326
−39,727
−40,096
−40,433
−40,737
−41,008
−41,245
−41,449
−41,62
−41,759
−41,867
−41,945
−41,995
−42,02
−42,021
−42,001
−41,962
−41,908
−41,842
−41,767
−41,686
−41,603
−41,522
−41,447
−41,38
−41,326
−41,287
−41,267
−41,267
−41,29
−41,338
−41,411
−41,512
−41,641
−41,799
−41,986
−42,202
−42,446
−42,719
−43,018
−43,344
−43,695
−44,069
−44,463
−44,876
−45,305
−45,748
−46,201
−46,662
−47,127
−47,594
−48,058
−48,516
−48,964
−49,399
−49,816
−50,213
−50,585
−50,931
−51,246
−51,53
−51,781
−51,998
−52,179
−52,326
−52,437
−52,513
−52,556
−52,565
−52,544
−52,493
−52,414
−52,311
−52,184
−52,039
−51,876
−51,7
−51,514
−51,321
−51,123
−50,924
−50,728
−50,536
−50,353
−50,182
−50,026
−49,889
−49,773
−49,683
−49,619
−49,585
−49,581
−49,609
−49,668
−49,758
−49,878
−50,026
−50,201
−50,399
−50,619
−50,858
−51,111
−51,375
−51,646
−51,918
−52,188
−52,448
−52,695
−52,922
−53,124
−53,296
−53,435
−53,534
−53,59
−53,599
−53,555
−53,455
−53,293
−53,065
−52,766
−52,392
−51,938
−51,401
−50,779
−50,072
−49,278
−48,399
−47,437
−46,394
−45,273
−44,077
−42,809
−41,472
−40,068
−38,599
−37,07
−35,485
−33,851
−32,176
−30,47
−28,74
−27
−25,257
−23,521
−21,797
−20,087
−18,393
−16,724
−15,092
−13,514
−12,013
−10,611
−9,326
−8,185
−7,207
−6,404
−5,779
−5,321
−5,018
−4,862
−4,854
−5,006
−5,331
−5,83
−6,493
−7,307
−8,24
−9,261
−10,332
−11,391
−12,389
−13,287
−14,072
−14,762
−15,392
−15,986
−16,549
−17,076
−17,554
−17,983
−18,37
−18,726
−19,076
−19,45
−19,904
−20,525
−21,398
−22,591
−24,144
−26,05
−28,273
−30,795
−33,61
−36,716
−40,12
−43,815
−47,775
−51,988
−56,433
−61,073
−65,853
−70,675
−75,411
−79,973
−84,308
−88,31
−91,871
−94,791
−96,755
−97,515
−96,837
−94,407
−90,029
−83,722
−75,635
−66,278
−56,42
−46,685
−37,788
−30,538
−25,294
−21,971
−20,16
−18,813
−16,465
−11,657
−2,561
12,966
35,38
63,336
95,652
130,694
169,541
216,451
271,277
329,307
379,694
405,808
397,718
355,104
287,01
209,7
134,281
62,56
−10,986
−92,732
−181,598
−266,901
−331,886
−365,171
−364,97
−338,804
−300,999
−261,758
−225,46
−192,137
−158,23
−122,714
−87,425
−55,32
−29,84
−12,22
−1,705
3,004
3,548
1,183
−3,1
−7,8
−11,428
−13,176
−12,78
−10,45
−6,705
−1,956
3,398
8,619
12,892
15,774
17,149
17,196
16,306
14,772
12,815
10,783
9,079
7,978
7,636
8,073
9,196
10,939
13,264
16,104
19,374
22,973
26,795
30,743
34,735
38,702
42,586
46,329
49,876
53,181
56,216
58,97
61,45
63,659
65,601
67,283
68,717
69,931
70,962
71,847
72,627
73,335
73,994
74,63
75,265
75,915
76,594
77,308
78,059
78,852
79,697
80,606
81,587
82,649
83,797
85,039
86,383
87,834
89,401
91,093
92,917
94,883
97,001
99,28
101,73
104,359
107,174
110,178
113,376
116,768
120,354
124,134
128,108
132,273
136,625
141,156
145,859
150,728
155,758
160,931
166,227
171,629
177,115
182,678
188,316
193,999
199,7
205,425
211,177
216,949
222,745
228,52
234,207
239,804
245,328
250,649
255,612
260,271
264,593
268,533
272,345
275,266
276,553
277,211
277,525
279,369
284,997
291,896
298,388
301,977
299,236
293,192
286,412
280,655
278,816
278,805
278,502
277,434
274,326
269,94
265,25
260,086
254,568
248,632
242,093
235,089
227,73
219,979
211,817
203,27
194,372
185,186
175,773
166,167
156,384
146,458
136,433
126,349
116,259
106,209
96,234
86,377
76,692
67,249
58,125
49,367
40,984
32,951
25,245
17,861
10,806
4,09
−2,288
−8,336
−14,059
−19,452
−24,507
−29,224
−33,62
−37,733
−41,608
−45,264
−48,695
−51,87
−54,766
−57,377
−59,703
−61,743
−63,492
−64,947
−66,114
−67,016
−67,677
−68,112
−68,329
−68,324
−68,095
−67,651
−67,015
−66,217
−65,285
−64,24
−63,103
−61,898
−60,65
−59,382
−58,107
−56,833
−55,566
−54,314
−53,091
−51,91
−50,785
−49,722
−48,728
−47,809
−46,968
−46,211
−45,538
−44,952
−44,45
−44,031
−43,697
−43,45
−43,288
−43,212
−43,218
−43,304
−43,467
−43,703
−44,008
−44,375
−44,8
−45,276
−45,798
−46,361
−46,958
−47,584
−48,233
−48,9
−49,579
−50,265
−50,953
−51,639
−52,318
−52,987
−53,64
−54,276
−54,89
−55,48
−56,044
−56,58
−57,086
−57,561
−58,005
−58,418
−58,798
−59,148
−59,468
−59,759
−60,022
−60,26
−60,473
−60,664
−60,835
−60,99
−61,13
−61,259
−61,379
−61,492
−61,603
−61,712
−61,824
−61,94
−62,063
−62,194
−62,337
−62,493
−62,663
−62,85
−63,055
−63,279
−63,522
−63,787
−64,072
−64,378
−64,704
−65,05
−65,414
−65,796
−66,193
−66,604
−67,027
−67,46
−67,9
−68,347
−68,796
−69,246
−69,693
−70,136
−70,572
−70,998
−71,411
−71,809
−72,19
−72,552
−72,892
−73,208
−73,499
−73,762
−73,996
−74,199
−74,37
−74,507
−74,61
−74,677
−74,71
−74,708
−74,671
−74,6
−74,497
−74,362
−74,198
−74,005
−73,787
−73,545
−73,281
−72,999
−72,7
−72,387
−72,063
−71,731
−71,393
−71,052
−70,71
−70,37
−70,034
−69,704
−69,383
−69,073
−68,775
−68,492
−68,224
−67,975
−67,746
−67,537
−67,35
−67,185
−67,043
−66,924
−66,828
−66,754
−66,701
−66,668
−66,654
−66,657
−66,677
−66,709
−66,753
−66,806
−66,866
−66,93
−66,995
−67,06
−67,121
−67,176
−67,223
−67,261
−67,286
−67,297
−67,291
−67,268
−67,226
−67,162
−67,075
−66,965
−66,829
−66,666
−66,477
−66,261
−66,016
−65,744
−65,445
−65,118
−64,766
−64,388
−63,987
−63,563
−63,118
−62,655
−62,176
−61,682
−61,177
−60,662
−60,142
−59,617
−59,091
−58,566
−58,045
−57,53
−57,023
−56,527
−56,043
−55,575
−55,123
−54,691
−54,28
−53,891
−53,527
−53,189
−52,878
−52,595
−52,342
−52,118
−51,924
−51,762
−51,63
−51,529
−51,458
−51,416
−51,403
−51,418
−51,458
−51,523
−51,61
−51,718
−51,845
−51,988
−52,146
−52,316
−52,495
−52,682
−52,874
−53,069
−53,264
−53,457
−53,645
−53,826
−53,997
−54,155
−54,298
−54,425
−54,532
−54,618
−54,68
−54,717
−54,727
−54,709
−54,661
−54,582
−54,472
−54,33
−54,156
−53,95
−53,712
−53,443
−53,143
−52,815
−52,458
−52,075
−51,666
−51,234
−50,78
−50,307
−49,815
−49,309
−48,789
−48,26
−47,724
−47,183
−46,64
−46,1
−45,565
−45,038
−44,522
−44,021
−43,537
−43,075
−42,635
−42,223
−41,839
−41,486
−41,166
−40,881
−40,633
−40,421
−40,248
−40,114
−40,02
−39,965
−39,949
−39,973
−40,037
−40,139
−40,278
−40,455
−40,668
−40,915
−41,195
−41,506
−41,845
−42,211
−42,6
−43,01
−43,437
−43,879
−44,332
−44,792
−45,256
−45,72
−46,18
−46,633
−47,075
−47,502
−47,912
−48,3
−48,665
−49,003
−49,311
−49,585
−49,825
−50,029
−50,196
−50,324
−50,412
−50,452
−50,447
−50,397
−50,291
−50,124
−49,889
−49,575
−49,184
−48,736
−48,227
−47,646
−47,031
−46,397
−45,747
−45,12
−44,504
−43,829
−43,101
−42,35
−41,434
−40,237
−38,885
−37,348
−35,56
−33,931
−31,785
−28,263
−24,494
−20,845
−19,099
−22,471
−28,965
−35,726
−39,738
−35,374
−23,639
−9,857
2,37
7,367
3,933
−2,597
−9,131
−12,509
−10,613
−6,588
−2,368
1,437
3,592
5,054
6,645
8,062
9,461
10,778
11,8
12,652
13,44
14,129
14,727
15,264
15,724
16,084
16,34
16,469
16,446
16,283
15,989
15,558
14,991
14,287
13,443
12,468
11,369
10,149
8,816
7,38
5,859
4,289
2,699
1,116
−0,438
−1,952
−3,413
−4,799
−6,089
−7,264
−8,305
−9,212
−9,985
−10,61
−11,089
−11,437
−11,697
−11,957
−12,299
−12,779
−13,444
−14,309
−15,401
−16,78
−18,494
−20,58
−23,079
−25,97
−29,279
−33,112
−37,442
−42,138
−46,923
−51,281
−54,753
−57,054
−57,809
−56,654
−53,55
−48,622
−42,455
−36,216
−30,877
−27,188
−25,903
−27,366
−31,239
−36,828
−42,67
−46,315
−45,363
−37,467
−20,189
7,196
43,219
86,331
134,404
187,045
246,637
311,854
377,59
433,517
464,818
463,245
427,988
366,157
292,16
216,158
143,182
74,677
7,624
−57,982
−118,64
−170,834
−210,769
−236,966
−250,671
−253,606
−247,286
−233,528
−214,315
−191,486
−167,274
−143,373
−120,517
−99,334
−80,316
−63,465
−48,843
−36,625
−26,29
−17,414
−9,771
−2,765
3,842
9,94
15,734
21,515
27,171
32,613
37,595
41,5
44,111
45,494
45,592
44,435
42,177
38,967
35,146
31,251
27,622
24,47
21,975
20,193
19,183
19,009
19,644
21,009
23,025
25,608
28,686
32,208
36,087
40,218
44,489
48,78
52,996
57,065
60,929
64,552
67,908
70,985
73,783
76,313
78,591
80,642
82,488
84,149
85,655
87,04
88,342
89,608
90,872
92,159
93,489
94,876
96,329
97,858
99,469
101,16
102,936
104,799
106,756
108,814
110,982
113,263
115,661
118,179
120,82
123,593
126,501
129,552
132,752
136,106
139,619
143,3
147,153
151,181
155,385
159,764
164,319
169,046
173,944
179,008
184,232
189,609
195,132
200,792
206,578
212,478
218,477
224,561
230,715
236,92
243,161
249,419
255,675
261,91
268,102
274,232
280,276
286,21
292,008
297,642
303,086
308,316
313,304
318,028
322,461
326,58
330,365
333,795
336,846
339,497
341,72
343,491
344,796
345,625
345,97
345,835
345,218
344,124
342,564
340,544
338,066
335,128
331,716
327,818
323,432
318,565
313,234
307,461
301,253
294,617
287,56
280,077
272,171
263,839
255,065
245,847
236,21
226,192
215,863
205,306
194,585
183,753
172,857
161,935
151,041
140,23
129,549
119,057
108,816
98,893
89,378
80,345
71,829
63,844
56,367
49,351
42,771
36,609
30,846
25,474
20,477
15,837
11,549
7,601
3,968
0,618
−2,509
−5,461
−8,261
−10,915
−13,404
−15,695
−17,769
−19,614
−21,214
−22,569
−23,678
−24,545
−25,187
−25,625
−25,87
−25,927
−25,788
−25,448
−24,914
−24,202
−23,338
−22,355
−21,28
−20,138
−18,958
−17,763
−16,57
−15,394
−14,242
−13,116
−12,023
−10,97
−9,967
−9,026
−8,155
−7,357
−6,637
−5,997
−5,436
−4,956
−4,554
−4,228
−3,976
−3,797
−3,691
−3,661
−3,705
−3,823
−4,013
−4,273
−4,601
−4,994
−5,446
−5,954
−6,511
−7,114
−7,759
−8,44
−9,153
−9,895
−10,66
−11,446
−12,248
−13,063
−13,887
−14,717
−15,548
−16,379
−17,205
−18,024
−18,835
−19,635
−20,422
−21,196
−21,955
−22,7
−23,429
−24,142
−24,839
−25,519
−26,182
−26,829
−27,46
−28,076
−28,678
−29,268
−29,847
−30,419
−30,984
−31,545
−32,104
−32,663
−33,224
−33,789
−34,359
−34,937
−35,524
−36,122
−36,734
−37,361
−38,005
−38,667
−39,348
−40,049
−40,771
−41,514
−42,278
−43,064
−43,871
−44,7
−45,55
−46,422
−47,314
−48,227
−49,16
−50,111
−51,08
−52,065
−53,063
−54,074
−55,095
−56,123
−57,157
−58,195
−59,233
−60,271
−61,304
−62,332
−63,351
−64,36
−65,356
−66,336
−67,299
−68,242
−69,164
−70,063
−70,939
−71,789
−72,612
−73,408
−74,176
−74,913
−75,62
−76,294
−76,936
−77,545
−78,119
−78,66
−79,166
−79,638
−80,077
−80,483
−80,858
−81,202
−81,518
−81,806
−82,068
−82,306
−82,522
−82,719
−82,897
−83,058
−83,206
−83,341
−83,466
−83,582
−83,691
−83,793
−83,891
−83,986
−84,078
−84,17
−84,262
−84,357
−84,455
−84,558
−84,668
−84,787
−84,915
−85,055
−85,206
−85,371
−85,549
−85,742
−85,948
−86,169
−86,404
−86,652
−86,912
−87,184
−87,466
−87,757
−88,057
−88,364
−88,677
−88,995
−89,317
−89,643
−89,971
−90,302
−90,634
−90,967
−91,302
−91,636
−91,971
−92,304
−92,636
−92,967
−93,297
−93,62
−93,933
−94,236
−94,525
−94,804
−95,071
−95,316
−95,543
−95,766
−95,996
−96,246
−96,517
−96,786
−97,052
−97,338
−97,629
−97,874
−98,036
−98,071
−97,975
−97,814
−97,609
−97,289
−96,928
−96,778
−96,892
−97,196
−97,723
−98,204
−99,145
−102,109
−106,752
−111,646
−114,421
−110,63
−100,567
−88,692
−79,458
−79,186
−88,25
−100,679
−111,861
−116,805
−114,66
−109,891
−105,233
−102,557
−102,42
−102,999
−103,47
−103,891
−104,196
−104,659
−105,343
−106,001
−106,556
−107,047
−107,464
−107,794
−108,042
−108,215
−108,332
−108,432
−108,525
−108,586
−108,608
−108,587
−108,522
−108,409
−108,246
−108,024
−107,738
−107,391
−106,98
−106,504
−105,964
−105,358
−104,686
−103,949
−103,147
−102,281
−101,354
−100,366
−99,322
−98,223
−97,073
−95,875
−94,633
−93,354
−92,042
−90,703
−89,345
−87,977
−86,605
−85,24
−83,889
−82,562
−81,267
−80,014
−78,812
−77,668
−76,591
−75,588
−74,669
−73,841
−73,114
−72,495
−71,992
−71,609
−71,354
−71,234
−71,254
−71,419
−71,73
−72,189
−72,802
−73,575
−74,511
−75,61
−76,865
−78,268
−79,807
−81,47
−83,239
−85,086
−86,984
−88,903
−90,813
−92,696
−94,53
−96,292
−97,953
−99,482
−100,857
−102,066
−103,11
−103,993
−104,724
−105,319
−105,817
−106,281
−106,775
−107,369
−108,13
−109,106
−110,359
−111,937
−113,879
−116,226
−119,001
−122,217
−125,881
−129,981
−134,479
−139,324
−144,449
−149,702
−154,868
−159,642
−163,624
−166,404
−167,63
−167,055
−164,462
−159,828
−153,351
−145,405
−136,715
−128,157
−120,438
−113,928
−108,714
−104,508
−100,715
−96,46
−90,125
−79,658
−63,003
−39,666
−11,199
20,903
55,392
94,051
141,342
197,127
256,203
306,872
332,491
323,744
280,579
211,586
132,37
53,73
−20,092
−89,304
−157,502
−224,455
−286,272
−338,512
−376,898
−399,948
−408,558
−403,882
−387,354
−361,204
−328,018
−290,634
−252,046
−214,499
−179,667
−149,425
−125,352
−107,962
−97,1
−92,058
−91,594
−94,66
−100,216
−106,653
−112,37
−116,438
−118,426
−118,364
−116,649
−113,58
−109,52
−105,234
−101,571
−99,016
−97,711
−97,503
−98,081
−99,227
−100,751
−102,32
−103,525
−104,096
−103,916
−103,003
−101,47
−99,397
−96,826
−93,825
−90,51
−86,994
−83,388
−79,794
−76,254
−72,805
−69,495
−66,365
−63,458
−60,803
−58,403
−56,242
−54,312
−52,607
−51,116
−49,829
−48,719
−47,751
−46,888
−46,09
−45,327
−44,573
−43,806
−43,003
−42,144
−41,212
−40,199
−39,1
−37,906
−36,606
−35,189
−33,641
−31,954
−30,122
−28,14
−26,002
−23,704
−21,24
−18,602
−15,784
−12,778
−9,576
−6,171
−2,552
1,287
5,351
9,642
14,156
18,892
23,846
29,018
34,41
40,016
45,829
51,835
58,021
64,373
70,869
77,48
84,167
90,892
97,625
104,344
111,036
117,687
124,279
130,793
137,212
143,53
149,747
155,854
161,841
167,696
173,419
179,028
184,561
190,044
195,482
200,859
206,145
211,31
216,319
221,129
225,68
229,893
233,694
237,028
239,852
242,125
243,795
244,786
245,006
244,385
242,881
240,479
237,182
232,994
227,939
222,063
215,442
208,178
200,362
192,062
183,333
174,231
164,823
155,198
145,455
135,671
125,907
116,213
106,631
97,203
87,957
78,898
70,007
61,248
52,602
44,066
35,65
27,364
19,213
11,192
3,299
−4,458
−12,066
−19,513
−26,791
−33,892
−40,804
−47,503
−53,954
−60,121
−65,977
−71,508
−76,703
−81,557
−86,063
−90,219
−94,027
−97,497
−100,637
−103,455
−105,957
−108,149
−110,039
−111,641
−112,972
−114,046
−114,88
−115,487
−115,881
−116,076
−116,087
−115,927
−115,605
−115,133
−114,522
−113,786
−112,936
−111,987
−110,952
−109,844
−108,674
−107,455
−106,199
−104,917
−103,617
−102,309
−101
−99,698
−98,409
−97,14
−95,895
−94,681
−93,5
−92,357
−91,256
−90,199
−89,188
−88,227
−87,316
−86,457
−85,652
−84,901
−84,204
−83,563
−82,977
−82,445
−81,966
−81,539
−81,162
−80,832
−80,546
−80,302
−80,095
−79,923
−79,782
−79,669
−79,579
−79,511
−79,461
−79,427
−79,405
−79,394
−79,39
−79,392
−79,397
−79,403
−79,409
−79,412
−79,409
−79,401
−79,383
−79,354
−79,312
−79,255
−79,18
−79,087
−78,972
−78,836
−78,676
−78,493
−78,285
−78,053
−77,798
−77,519
−77,217
−76,894
−76,55
−76,186
−75,804
−75,404
−74,988
−74,556
−74,109
−73,648
−73,175
−72,688
−72,19
−71,68
−71,159
−70,627
−70,085
−69,532
−68,971
−68,402
−67,825
−67,242
−66,653
−66,06
−65,463
−64,863
−64,26
−63,654
−63,045
−62,432
−61,815
−61,193
−60,565
−59,928
−59,283
−58,627
−57,959
−57,277
−56,58
−55,866
−55,134
−54,382
−53,61
−52,815
−51,997
−51,155
−50,289
−49,399
−48,482
−47,539
−46,57
−45,573
−44,549
−43,495
−42,412
−41,299
−40,155
−38,981
−37,776
−36,541
−35,276
−33,982
−32,659
−31,31
−29,935
−28,536
−27,115
−25,673
−24,212
−22,735
−21,244
−19,74
−18,226
−16,705
−15,178
−13,646
−12,113
−10,579
−9,045
−7,513
−5,984
−4,46
−2,94
−1,427
0,079
1,578
3,068
4,548
6,02
7,482
8,934
10,377
11,812
13,238
14,658
16,071
17,48
18,885
20,288
21,691
23,096
24,505
25,919
27,343
28,777
30,224
31,687
33,168
34,668
36,19
37,736
39,307
40,905
42,531
44,187
45,874
47,593
49,345
51,13
52,948
54,801
56,687
58,606
60,559
62,543
64,559
66,606
68,682
70,786
72,917
75,072
77,251
79,451
81,669
83,903
86,151
88,411
90,678
92,952
95,229
97,506
99,781
102,051
104,315
106,568
108,81
111,038
113,25
115,445
117,621
119,777
121,912
124,026
126,118
128,188
130,235
132,26
134,262
136,243
138,202
140,139
142,057
143,955
145,834
147,695
149,541
151,372
153,188
154,993
156,787
158,572
160,349
162,119
163,885
165,648
167,409
169,17
170,931
172,694
174,46
176,228
177,999
179,773
181,548
183,325
185,103
186,88
188,656
190,429
192,197
193,96
195,715
197,461
199,196
200,918
202,625
204,316
205,988
207,641
209,272
210,881
212,465
214,023
215,554
217,057
218,53
219,973
221,384
222,762
224,108
225,42
226,701
227,949
229,166
230,355
231,516
232,652
233,765
234,859
235,935
236,997
238,049
239,095
240,137
241,18
242,227
243,284
244,354
245,44
246,547
247,678
248,836
250,025
251,247
252,505
253,802
255,141
256,523
257,952
259,428
260,955
262,533
264,163
265,845
267,58
269,367
271,203
273,088
275,018
276,992
279,005
281,053
283,132
285,238
287,366
289,51
291,666
293,825
295,981
298,126
300,252
302,35
304,412
306,43
308,392
310,293
312,127
313,888
315,572
317,169
318,664
320,052
321,322
322,464
323,47
324,328
325,025
325,562
325,936
326,148
326,204
326,093
325,811
325,351
324,704
323,874
322,873
321,702
320,368
318,894
317,294
315,603
313,861
312,078
310,264
308,435
306,596
304,773
302,992
301,271
299,637
298,107
296,682
295,38
294,206
293,129
292,129
291,156
290,133
289,028
287,807
286,415
284,816
282,958
280,783
278,264
275,38
272,104
268,417
264,294
259,717
254,72
249,379
243,786
238,039
232,279
226,693
221,549
217,244
214,166
212,522
212,487
214,214
217,633
222,676
229,143
236,324
243,487
250,284
256,458
262,043
267,574
273,353
279,751
288,232
300,482
317,565
340,514
368,695
399,612
432,832
468,383
506,139
547,893
589,885
623,808
642,227
636,147
604,545
555,624
496,905
436,121
374,416
305,607
228,255
146,838
72,533
19,458
−6,205
−7,671
5,088
21,523
36,464
49,851
64,576
82,397
102,877
124,156
143,575
159,371
170,46
176,582
178,483
176,895
172,225
164,963
155,608
145,061
134,91
126,209
119,295
114,256
110,949
109,199
108,903
109,605
110,399
110,69
110,245
109,017
107,211
104,983
102,364
99,524
96,762
94,26
92,101
90,281
88,669
87,179
85,783
84,431
83,078
81,686
80,219
78,655
76,996
75,239
73,378
71,412
69,334
67,147
64,856
62,473
60,015
57,493
54,916
52,291
49,619
46,908
44,167
41,406
38,637
35,873
33,122
30,398
27,715
25,085
22,518
20,024
17,609
15,283
13,058
10,944
8,954
7,097
5,386
3,829
2,437
1,219
0,183
−0,665
−1,317
−1,769
−2,014
−2,046
−1,862
−1,457
−0,829
0,025
1,106
2,414
3,947
5,704
7,683
9,877
12,284
14,895
17,705
20,705
23,884
27,232
30,735
34,382
38,158
42,045
46,028
50,089
54,211
58,377
62,569
66,766
70,949
75,1
79,198
83,222
87,148
90,953
94,613
98,106
101,41
104,505
107,369
109,984
112,33
114,392
116,154
117,599
118,709
119,461
119,838
119,833
119,443
118,671
117,519
115,987
114,082
111,82
109,206
106,245
102,933
99,252
95,198
90,773
85,991
80,879
75,45
69,709
63,657
57,297
50,626
43,652
36,368
28,75
20,799
12,534
4
−4,728
−13,593
−22,556
−31,586
−40,663
−49,758
−58,827
−67,832
−76,741
−85,516
−94,122
−102,502
−110,577
−118,302
−125,666
−132,683
−139,413
−145,892
−152,138
−158,17
−164
−169,645
−175,134
−180,48
−185,685
−190,764
−195,738
−200,646
−205,55
−210,486
−215,461
−220,465
−225,458
−230,413
−235,321
−240,168
−244,938
−249,621
−254,204
−258,688
−263,087
−267,405
−271,639
−275,773
−279,782
−283,651
−287,379
−290,97
−294,44
−297,799
−301,05
−304,2
−307,257
−310,226
−313,11
−315,902
−318,589
−321,163
−323,622
−325,963
−328,189
−330,301
−332,297
−334,174
−335,931
−337,567
−339,082
−340,477
−341,748
−342,897
−343,928
−344,846
−345,658
−346,372
−346,996
−347,537
−348,005
−348,409
−348,757
−349,06
−349,328
−349,568
−349,794
−350,014
−350,241
−350,486
−350,76
−351,073
−351,436
−351,859
−352,353
−352,925
−353,585
−354,339
−355,195
−356,158
−357,233
−358,425
−359,735
−361,166
−362,719
−364,394
−366,19
−368,104
−370,134
−372,274
−374,519
−376,864
−379,299
−381,817
−384,409
−387,064
−389,773
−392,523
−395,304
−398,103
−400,906
−403,702
−406,478
−409,219
−411,912
−414,545
−417,104
−419,576
−421,95
−424,213
−426,354
−428,363
−430,23
−431,944
−433,498
−434,884
−436,094
−437,123
−437,966
−438,619
−439,078
−439,342
−439,409
−439,279
−438,955
−438,437
−437,73
−436,837
−435,762
−434,513
−433,095
−431,516
−429,783
−427,906
−425,894
−423,755
−421,501
−419,141
−416,686
−414,147
−411,534
−408,859
−406,133
−403,365
−400,567
−397,749
−394,922
−392,095
−389,277
−386,479
−383,707
−380,971
−378,278
−375,634
−373,046
−370,519
−368,057
−365,665
−363,345
−361,101
−358,933
−356,844
−354,834
−352,901
−351,047
−349,268
−347,565
−345,933
−344,37
−342,873
−341,437
−340,06
−338,735
−337,459
−336,227
−335,033
−333,873
−332,74
−331,629
−330,535
−329,452
−328,375
−327,299
−326,219
−325,129
−324,026
−322,905
−321,762
−320,594
−319,397
−318,168
−316,906
−315,606
−314,268
−312,89
−311,47
−310,007
−308,502
−306,953
−305,361
−303,725
−302,047
−300,327
−298,567
−296,767
−294,93
−293,057
−291,151
−289,213
−287,246
−285,252
−283,233
−281,191
−279,13
−277,05
−274,955
−272,847
−270,726
−268,596
−266,457
−264,312
−262,162
−260,007
−257,85
−255,692
−253,533
−251,374
−249,216
−247,061
−244,909
−242,759
−240,614
−238,473
−236,335
−234,202
−232,074
−229,949
−227,827
−225,708
−223,591
−221,476
−219,361
−217,246
−215,131
−213,013
−210,894
−208,771
−206,646
−204,516
−202,382
−200,244
−198,101
−195,953
−193,799
−191,64
−189,476
−187,307
−185,131
−182,949
−180,761
−178,568
−176,368
−174,159
−171,94
−169,71
−167,469
−165,221
−162,96
−160,682
−158,397
−156,108
−153,821
−151,543
−149,268
−146,982
−144,697
−142,423
−140,135
−137,814
−135,444
−133,001
−130,505
−127,998
−125,456
−122,839
−120,254
−117,824
−115,475
−113,215
−111,067
−108,767
−107,034
−106,569
−106,374
−106,146
−104,052
−97,893
−90,105
−82,31
−76,923
−77,264
−80,398
−83,838
−85,882
−83,712
−79,343
−74,816
−70,584
−67,892
−66,017
−64,03
−62,108
−60,132
−58,162
−56,387
−54,682
−52,949
−51,219
−49,499
−47,775
−46,049
−44,328
−42,611
−40,917
−39,263
−37,638
−36,032
−34,445
−32,875
−31,319
−29,778
−28,247
−26,722
−25,203
−23,69
−22,181
−20,675
−19,172
−17,669
−16,166
−14,663
−13,159
−11,653
−10,145
−8,634
−7,121
−5,605
−4,086
−2,563
−1,037
0,492
2,023
3,555
5,086
6,613
8,133
9,641
11,131
12,6
14,042
15,451
16,824
18,155
19,439
20,674
21,855
22,978
24,038
25,031
25,951
26,794
27,558
28,237
28,829
29,328
29,731
30,035
30,24
30,344
30,344
30,233
30,006
29,668
29,224
28,683
28,054
27,347
26,577
25,768
24,945
24,137
23,363
22,638
21,976
21,389
20,897
20,526
20,291
20,19
20,215
20,349
20,577
20,891
21,251
21,582
21,795
21,796
21,526
20,958
20,061
18,807
17,177
15,196
12,964
10,566
8,027
5,35
2,498
−0,547
−3,748
−7,204
−10,953
−14,637
−17,726
−19,609
−20,268
−20,554
−20,989
−20,831
−17,068
−5,941
13,653
39,189
63,729
78,99
80,967
69,104
46,501
20,567
−2,045
−13,397
−3,559
30,43
85,855
155,679
226,597
291,846
352,652
409,285
462,762
506,62
526,238
513,364
466,467
392,744
307,798
222,378
141,853
67,729
−2,556
−67,867
−124,539
−169,586
−199,75
−214,354
−214,747
−201,894
−177,588
−144,653
−105,643
−63,224
−20,301
20,963
58,339
89,246
112,388
127,565
134,841
134,991
129,244
118,981
106,598
94,866
85,37
79,064
76,558
77,855
82,961
91,376
101,434
111,387
120,24
127,359
132,549
135,87
137,065
136,308
134,49
132,42
130,65
129,532
129,053
129,201
130,202
132,075
134,589
137,561
140,797
144,184
147,757
151,489
155,269
159,037
162,76
166,412
169,995
173,492
176,859
180,08
183,15
186,066
188,838
191,47
193,967
196,348
198,633
200,848
203,026
205,194
207,377
209,598
211,875
214,22
216,645
219,154
221,751
224,44
227,223
230,102
233,082
236,165
239,354
242,653
246,067
249,597
253,248
257,025
260,934
264,984
269,18
273,527
278,032
282,7
287,537
292,554
297,754
303,135
308,693
314,423
320,311
326,347
332,513
338,781
345,127
351,526
357,956
364,408
370,872
377,333
383,778
390,192
396,565
402,904
409,218
415,509
421,785
428,052
434,323
440,633
447,005
453,45
459,971
466,543
473,135
479,717
486,252
492,69
498,971
505,007
510,702
515,978
520,758
524,966
528,522
531,319
533,264
534,292
534,354
533,427
531,505
528,584
524,672
519,808
514,048
507,474
500,188
492,269
483,791
474,832
465,474
455,819
445,963
435,976
425,919
415,839
405,774
395,768
385,855
376,043
366,331
356,704
347,133
337,612
328,141
318,721
309,354
300,035
290,764
281,555
272,43
263,412
254,523
245,78
237,204
228,825
220,679
212,801
205,23
197,994
191,113
184,604
178,481
172,753
167,427
162,5
157,964
153,81
150,031
146,619
143,564
140,854
138,471
136,398
134,617
133,111
131,862
130,852
130,063
129,479
129,084
128,861
128,797
128,876
129,081
129,395
129,803
130,287
130,831
131,421
132,04
132,673
133,309
133,933
134,536
135,108
135,639
136,121
136,548
136,913
137,213
137,444
137,602
137,686
137,694
137,626
137,482
137,263
136,97
136,603
136,165
135,656
135,079
134,436
133,728
132,958
132,127
131,239
130,296
129,301
128,256
127,165
126,03
124,854
123,64
122,391
121,11
119,797
118,454
117,084
115,686
114,261
112,809
111,33
109,823
108,287
106,721
105,123
103,493
101,827
100,124
98,382
96,599
94,774
92,904
90,989
89,026
87,015
84,954
82,842
80,678
78,461
76,191
73,866
71,484
69,046
66,55
63,994
61,379
58,704
55,968
53,17
50,312
47,393
44,415
41,377
38,282
35,13
31,925
28,667
25,359
22,005
18,606
15,166
11,688
8,176
4,633
1,062
−2,533
−6,148
−9,78
−13,425
−17,08
−20,741
−24,404
−28,064
−31,717
−35,359
−38,985
−42,591
−46,171
−49,722
−53,237
−56,713
−60,146
−63,53
−66,861
−70,135
−73,348
−76,496
−79,575
−82,582
−85,514
−88,367
−91,14
−93,83
−96,435
−98,953
−101,382
−103,721
−105,968
−108,121
−110,18
−112,143
−114,009
−115,778
−117,449
−119,022
−120,498
−121,875
−123,155
−124,338
−125,426
−126,418
−127,316
−128,121
−128,834
−129,456
−129,99
−130,437
−130,798
−131,075
−131,27
−131,384
−131,42
−131,378
−131,26
−131,067
−130,801
−130,464
−130,058
−129,583
−129,042
−128,437
−127,77
−127,044
−126,26
−125,421
−124,53
−123,588
−122,599
−121,565
−120,489
−119,374
−118,224
−117,04
−115,826
−114,587
−113,323
−112,04
−110,74
−109,427
−108,103
−106,772
−105,438
−104,104
−102,774
−101,451
−100,138
−98,841
−97,562
−96,304
−95,072
−93,868
−92,696
−91,557
−90,455
−89,392
−88,369
−87,39
−86,456
−85,567
−84,725
−83,932
−83,186
−82,49
−81,842
−81,242
−80,689
−80,184
−79,725
−79,312
−78,942
−78,616
−78,33
−78,085
−77,877
−77,705
−77,567
−77,46
−77,382
−77,329
−77,301
−77,293
−77,304
−77,33
−77,369
−77,418
−77,476
−77,539
−77,606
−77,674
−77,743
−77,809
−77,873
−77,932
−77,986
−78,034
−78,074
−78,108
−78,134
−78,152
−78,162
−78,164
−78,159
−78,146
−78,127
−78,102
−78,072
−78,038
−78,001
−77,961
−77,921
−77,882
−77,845
−77,812
−77,786
−77,767
−77,758
−77,761
−77,778
−77,81
−77,859
−77,928
−78,017
−78,128
−78,262
−78,421
−78,606
−78,817
−79,056
−79,322
−79,618
−79,941
−80,294
−80,674
−81,082
−81,516
−81,976
−82,46
−82,966
−83,491
−84,034
−84,593
−85,167
−85,753
−86,348
−86,949
−87,556
−88,164
−88,77
−89,367
−89,949
−90,509
−91,042
−91,541
−92,001
−92,417
−92,781
−93,089
−93,34
−93,529
−93,651
−93,698
−93,656
−93,517
−93,282
−92,953
−92,536
−92,037
−91,458
−90,806
−90,093
−89,324
−88,499
−87,609
−86,63
−85,551
−84,367
−83,083
−81,717
−80,273
−78,744
−77,119
−75,384
−73,524
−71,534
−69,392
−67,064
−64,539
−61,825
−58,957
−56,002
−53,01
−50,01
−47,025
−44,056
−41,118
−38,245
−35,476
−32,844
−30,392
−28,156
−26,195
−24,597
−23,416
−22,674
−22,348
−22,367
−22,67
−23,235
−24,042
−25,092
−26,386
−27,897
−29,595
−31,461
−33,465
−35,572
−37,72
−39,804
−41,728
−43,445
−44,957
−46,322
−47,598
−48,802
−49,942
−51,01
−51,995
−52,908
−53,766
−54,567
−55,313
−56,028
−56,757
−57,607
−58,706
−60,139
−61,95
−64,133
−66,665
−69,55
−72,79
−76,392
−80,373
−84,728
−89,46
−94,579
−100,049
−105,854
−111,991
−118,311
−124,585
−130,506
−135,625
−139,633
−142,386
−143,599
−142,986
−140,501
−136,174
−130,448
−124,287
−118,288
−112,696
−108,111
−105,06
−103,453
−103,274
−103,047
−99,32
−90,707
−76,901
−58,122
−38,14
−17,786
6,438
37,305
81,634
143,649
217,448
294,422
358,976
393,074
390,242
350,264
281,578
200,914
118,407
39,649
−33,487
−104,939
−174,539
−238,525
−293,048
−333,128
−356,601
−364,384
−357,874
−339,191
−311,186
−276,762
−239,198
−201,951
−167,626
−138,2
−115,224
−99,298
−90,159
−87,024
−88,465
−92,712
−98,208
−103,319
−106,622
−107,477
−105,728
−101,587
−95,734
−88,928
−81,889
−75,533
−70,558
−67,213
−65,552
−65,368
−66,233
−67,794
−69,7
−71,525
−73,003
−73,995
−74,377
−74,151
−73,358
−72,008
−70,156
−67,872
−65,181
−62,134
−58,804
−55,258
−51,604
−47,94
−44,32
−40,794
−37,397
−34,153
−31,101
−28,261
−25,631
−23,209
−20,99
−18,972
−17,161
−15,545
−14,092
−12,764
−11,515
−10,31
−9,123
−7,932
−6,717
−5,462
−4,152
−2,779
−1,343
0,161
1,742
3,413
5,188
7,078
9,092
11,233
13,509
15,925
18,489
21,205
24,079
27,114
30,316
33,691
37,25
40,999
44,945
49,091
53,441
57,998
62,767
67,747
72,935
78,325
83,912
89,689
95,652
101,8
108,122
114,608
121,239
128,001
134,873
141,833
148,848
155,88
162,888
169,841
176,716
183,497
190,166
196,703
203,087
209,299
215,33
221,175
226,823
232,266
237,492
242,502
247,31
251,947
256,438
260,793
265,001
269,039
272,887
276,52
279,909
283,024
285,808
288,21
290,187
291,695
292,697
293,142
292,958
292,058
290,365
287,813
284,37
280,025
274,766
268,6
261,539
253,602
244,849
235,335
225,115
214,261
202,841
190,935
178,66
166,148
153,535
140,966
128,558
116,4
104,586
93,193
82,295
71,975
62,273
53,223
44,856
37,18
30,206
23,936
18,336
13,349
8,907
4,917
1,307
−1,967
−4,96
−7,713
−10,275
−12,708
−15,046
−17,312
−19,529
−21,706
−23,856
−25,996
−28,117
−30,191
−32,182
−34,037
−35,72
−37,218
−38,515
−39,599
−40,461
−41,082
−41,46
−41,607
−41,532
−41,247
−40,76
−40,079
−39,222
−38,221
−37,106
−35,918
−34,686
−33,429
−32,168
−30,92
−29,7
−28,521
−27,393
−26,316
−25,293
−24,33
−23,431
−22,603
−21,85
−21,167
−20,554
−20,008
−19,527
−19,111
−18,759
−18,47
−18,242
−18,077
−17,974
−17,938
−17,967
−18,06
−18,216
−18,432
−18,706
−19,036
−19,419
−19,851
−20,329
−20,85
−21,412
−22,013
−22,65
−23,321
−24,023
−24,755
−25,515
−26,299
−27,108
−27,939
−28,79
−29,66
−30,547
−31,45
−32,368
−33,299
−34,243
−35,197
−36,161
−37,133
−38,112
−39,097
−40,087
−41,081
−42,078
−43,077
−44,078
−45,081
−46,086
−47,091
−48,098
−49,106
−50,114
−51,122
−52,129
−53,135
−54,139
−55,14
−56,138
−57,131
−58,119
−59,1
−60,074
−61,04
−61,996
−62,941
−63,875
−64,795
−65,701
−66,592
−67,466
−68,322
−69,159
−69,976
−70,771
−71,543
−72,292
−73,014
−73,71
−74,376
−75,013
−75,619
−76,191
−76,729
−77,231
−77,695
−78,121
−78,508
−78,854
−79,158
−79,419
−79,637
−79,811
−79,941
−80,026
−80,066
−80,062
−80,011
−79,916
−79,776
−79,59
−79,36
−79,086
−78,769
−78,408
−78,005
−77,562
−77,079
−76,557
−75,997
−75,402
−74,772
−74,11
−73,416
−72,694
−71,945
−71,17
−70,373
−69,556
−68,72
−67,868
−67,003
−66,126
−65,239
−64,346
−63,447
−62,546
−61,645
−60,745
−59,849
−58,96
−58,079
−57,21
−56,353
−55,512
−54,688
−53,882
−53,098
−52,335
−51,596
−50,881
−50,193
−49,532
−48,9
−48,296
−47,723
−47,179
−46,667
−46,186
−45,737
−45,319
−44,932
−44,578
−44,254
−43,962
−43,701
−43,472
−43,272
−43,103
−42,963
−42,851
−42,766
−42,707
−42,673
−42,662
−42,673
−42,704
−42,755
−42,824
−42,91
−43,012
−43,128
−43,257
−43,399
−43,553
−43,717
−43,892
−44,075
−44,267
−44,466
−44,673
−44,886
−45,106
−45,331
−45,562
−45,796
−46,035
−46,276
−46,519
−46,764
−47,01
−47,257
−47,505
−47,753
−48,003
−48,253
−48,504
−48,757
−49,012
−49,269
−49,528
−49,79
−50,053
−50,319
−50,586
−50,855
−51,125
−51,396
−51,666
−51,935
−52,201
−52,464
−52,723
−52,976
−53,222
−53,46
−53,69
−53,91
−54,119
−54,318
−54,505
−54,679
−54,841
−54,99
−55,125
−55,245
−55,349
−55,437
−55,507
−55,559
−55,591
−55,604
−55,596
−55,567
−55,517
−55,445
−55,353
−55,239
−55,106
−54,954
−54,784
−54,598
−54,397
−54,185
−53,962
−53,732
−53,498
−53,26
−53,024
−52,789
−52,56
−52,337
−52,123
−51,92
−51,73
−51,554
−51,395
−51,253
−51,132
−51,031
−50,954
−50,902
−50,876
−50,876
−50,905
−50,962
−51,048
−51,164
−51,308
−51,48
−51,679
−51,903
−52,151
−52,42
−52,706
−53,005
−53,314
−53,628
−53,941
−54,248
−54,545
−54,824
−55,081
−55,311
−55,507
−55,666
−55,78
−55,845
−55,856
−55,808
−55,695
−55,512
−55,255
−54,919
−54,5
−53,993
−53,395
−52,703
−51,914
−51,024
−50,033
−48,938
−47,74
−46,436
−45,03
−43,521
−41,913
−40,211
−38,418
−36,541
−34,587
−32,565
−30,484
−28,352
−26,18
−23,979
−21,759
−19,531
−17,307
−15,096
−12,91
−10,761
−8,66
−6,619
−4,651
−2,766
−0,978
0,702
2,261
3,687
4,971
6,104
7,081
7,893
8,531
8,985
9,245
9,311
9,18
8,854
8,338
7,639
6,773
5,766
4,648
3,443
2,171
0,845
−0,519
−1,903
−3,283
−4,628
−5,92
−7,146
−8,303
−9,384
−10,388
−11,32
−12,222
−13,169
−14,235
−15,488
−16,967
−18,682
−20,665
−22,965
−25,632
−28,707
−32,213
−36,142
−40,51
−45,396
−50,798
−56,598
−62,576
−68,356
−73,544
−77,843
−80,923
−82,358
−81,95
−79,802
−76,16
−71,596
−66,917
−62,829
−59,969
−59,128
−59,884
−60,35
−59,841
−57,843
−54,516
−52,238
−48,853
−38,558
−16,445
23,386
80,343
146,45
214,45
276,446
327,506
367,795
396,4
412,235
414,068
399,303
367,231
318,891
257,193
187,195
112,672
36,267
−40,432
−117,484
−190,825
−253,453
−299,177
−321,303
−319,97
−301,622
−272,17
−239,181
−206,503
−172,947
−139,075
−105,36
−73,132
−46,176
−26,293
−13,233
−6,457
−4,541
−5,873
−9,572
−14,373
−18,395
−20,612
−20,704
−18,597
−14,771
−9,848
−4,166
1,635
6,574
10,152
12,206
12,763
12,22
10,962
9,216
7,328
5,726
4,683
4,375
4,876
6,107
8,001
10,528
13,619
17,2
21,198
25,52
30,079
34,796
39,578
44,345
49,039
53,598
57,971
62,121
66,02
69,661
73,049
76,185
79,07
81,708
84,108
86,296
88,304
90,164
91,913
93,58
95,189
96,769
98,337
99,905
101,481
103,064
104,658
106,278
107,938
109,649
111,424
113,275
115,214
117,261
119,425
121,702
124,093
126,593
129,21
131,962
134,864
137,931
141,169
144,57
148,136
151,879
155,795
159,869
164,083
168,4
172,809
177,326
181,955
186,693
191,53
196,436
201,394
206,399
211,44
216,518
221,623
226,731
231,842
236,981
242,175
247,47
252,889
258,41
264,033
269,775
275,641
281,645
287,783
294,02
300,334
306,696
313,068
319,419
325,69
331,784
337,601
343,025
347,936
352,261
355,908
358,764
360,748
361,786
361,822
360,837
358,811
355,724
351,582
346,404
340,225
333,121
325,176
316,489
307,184
297,364
287,132
276,612
265,897
255,071
244,211
233,369
222,591
211,928
201,413
191,068
180,915
170,953
161,177
151,572
142,105
132,75
123,492
114,312
105,206
96,176
87,229
78,38
69,656
61,076
52,664
44,448
36,448
28,689
21,2
14,007
7,146
0,642
−5,485
−11,22
−16,555
−21,487
−26,015
−30,144
−33,887
−37,257
−40,264
−42,923
−45,244
−47,243
−48,936
−50,339
−51,471
−52,35
−52,995
−53,421
−53,647
−53,69
−53,569
−53,298
−52,895
−52,374
−51,752
−51,047
−50,274
−49,451
−48,592
−47,711
−46,823
−45,94
−45,075
−44,236
−43,434
−42,674
−41,966
−41,313
−40,722
−40,196
−39,738
−39,35
−39,035
−38,793
−38,624
−38,528
−38,505
−38,552
−38,668
−38,85
−39,095
−39,401
−39,762
−40,176
−40,637
−41,141
−41,682
−42,255
−42,856
−43,478
−44,115
−44,765
−45,42
−46,077
−46,732
−47,38
−48,02
−48,648
−49,261
−49,858
−50,437
−50,997
−51,536
−52,054
−52,55
−53,025
−53,477
−53,909
−54,319
−54,709
−55,081
−55,434
−55,771
−56,093
−56,401
−56,697
−56,983
−57,263
−57,536
−57,807
−58,078
−58,351
−58,628
−58,911
−59,203
−59,505
−59,819
−60,146
−60,487
−60,843
−61,214
−61,602
−62,006
−62,426
−62,863
−63,316
−63,783
−64,266
−64,762
−65,27
−65,789
−66,318
−66,856
−67,4
−67,95
−68,503
−69,058
−69,613
−70,166
−70,715
−71,257
−71,791
−72,314
−72,824
−73,32
−73,799
−74,259
−74,7
−75,119
−75,515
−75,888
−76,235
−76,557
−76,853
−77,121
−77,362
−77,575
−77,761
−77,919
−78,049
−78,153
−78,231
−78,283
−78,31
−78,314
−78,294
−78,252
−78,19
−78,108
−78,007
−77,889
−77,755
−77,607
−77,446
−77,274
−77,093
−76,903
−76,707
−76,505
−76,3
−76,091
−75,882
−75,672
−75,464
−75,258
−75,057
−74,86
−74,671
−74,488
−74,315
−74,151
−73,998
−73,857
−73,728
−73,612
−73,51
−73,423
−73,352
−73,296
−73,258
−73,236
−73,232
−73,246
−73,278
−73,329
−73,397
−73,484
−73,589
−73,711
−73,851
−74,008
−74,182
−74,373
−74,578
−74,798
−75,031
−75,276
−75,532
−75,797
−76,068
−76,345
−76,625
−76,906
−77,186
−77,462
−77,733
−77,995
−78,246
−78,484
−78,706
−78,909
−79,091
−79,249
−79,381
−79,484
−79,556
−79,596
−79,601
−79,57
−79,5
−79,391
−79,242
−79,05
−78,815
−78,537
−78,216
−77,85
−77,442
−76,99
−76,497
−75,964
−75,391
−74,782
−74,137
−73,459
−72,751
−72,016
−71,256
−70,476
−69,678
−68,866
−68,044
−67,215
−66,384
−65,555
−64,73
−63,914
−63,11
−62,322
−61,552
−60,805
−60,082
−59,387
−58,723
−58,091
−57,494
−56,934
−56,412
−55,929
−55,487
−55,086
−54,725
−54,406
−54,128
−53,889
−53,69
−53,529
−53,405
−53,316
−53,26
−53,235
−53,237
−53,266
−53,316
−53,387
−53,474
−53,576
−53,688
−53,808
−53,934
−54,063
−54,192
−54,319
−54,442
−54,558
−54,666
−54,764
−54,851
−54,926
−54,987
−55,034
−55,067
−55,085
−55,089
−55,08
−55,057
−55,021
−54,972
−54,913
−54,843
−54,764
−54,678
−54,585
−54,487
−54,386
−54,284
−54,182
−54,082
−53,985
−53,893
−53,806
−53,726
−53,653
−53,587
−53,529
−53,48
−53,438
−53,404
−53,376
−53,354
−53,334
−53,316
−53,297
−53,273
−53,241
−53,197
−53,137
−53,057
−52,953
−52,82
−52,654
−52,449
−52,201
−51,907
−51,56
−51,157
−50,692
−50,161
−49,562
−48,89
−48,141
−47,312
−46,397
−45,395
−44,303
−43,123
−41,853
−40,493
−39,043
−37,504
−35,878
−34,168
−32,377
−30,505
−28,554
−26,529
−24,437
−22,291
−20,103
−17,882
−15,634
−13,364
−11,075
−8,778
−6,478
−4,184
−1,898
0,368
2,603
4,786
6,894
8,911
10,827
12,637
14,343
15,933
17,386
18,669
19,743
20,577
21,161
21,494
21,573
21,391
20,937
20,225
19,327
18,303
17,123
15,637
13,677
11,2
8,352
5,345
2,283
−0,855
−3,979
−6,504
−7,815
−7,721
−6,279
−4,703
−3,979
−3,425
−3,087
−1,661
2,03
5,764
8,847
8,459
1,404
−10,833
−27,669
−44,399
−55,779
−61,008
−58,917
−53,579
−49,341
−47,426
−49,853
−54,782
−60,104
−65,439
−69,436
−72,149
−73,91
−74,286
−73,178
−70,292
−65,445
−58,926
−51,216
−43,111
−35,331
−28,311
−22,512
−18,312
−15,743
−14,448
−13,596
−11,998
−7,498
1,878
16,641
38,166
64,391
91,246
119,929
150,058
185,149
233,148
290,752
351,042
401,914
424,033
410,089
362,198
289,944
210,263
132,376
58,091
−15,351
−90,559
−162,408
−222,455
−261,265
−275,323
−269,581
−250,074
−223,96
−195,236
−163,719
−130,775
−97,854
−66,989
−41,606
−23,521
−13,029
−9,676
−11,628
−16,777
−23,487
−30,103
−35,371
−38,397
−38,601
−35,955
−30,978
−24,514
−17,482
−10,808
−5,08
−0,646
2,307
3,867
4,241
3,746
2,815
1,87
1,164
0,817
0,879
1,325
2,164
3,414
5,038
6,977
9,181
11,604
14,21
16,95
19,763
22,572
25,307
27,92
30,386
32,696
34,848
36,839
38,661
40,3
41,752
43,015
44,093
44,997
45,745
46,367
46,898
47,375
47,83
48,289
48,772
49,293
49,862
50,485
51,171
51,932
52,781
53,733
54,802
56,003
57,347
58,846
60,506
62,336
64,341
66,53
68,908
71,483
74,262
77,253
80,465
83,906
87,579
91,489
95,634
100,014
104,628
109,47
114,536
119,818
125,305
130,991
136,868
142,928
149,167
155,569
162,11
168,771
175,533
182,372
189,266
196,188
203,105
209,993
216,839
223,627
230,346
236,973
243,475
249,82
255,978
261,924
267,651
273,141
278,368
283,316
287,974
292,336
296,412
300,179
303,592
306,607
309,183
311,293
312,932
314,087
314,739
314,872
314,46
313,488
311,96
309,862
307,171
303,864
299,907
295,304
290,107
284,357
278,094
271,351
264,145
256,505
248,471
240,082
231,371
222,371
213,102
203,604
193,935
184,15
174,314
164,465
154,603
144,744
134,903
125,103
115,374
105,739
96,208
86,805
77,56
68,503
59,668
51,075
42,733
34,649
26,829
19,288
12,053
5,144
−1,424
−7,638
−13,489
−18,968
−24,061
−28,765
−33,086
−37,033
−40,612
−43,832
−46,695
−49,208
−51,38
−53,222
−54,747
−55,969
−56,901
−57,559
−57,958
−58,116
−58,052
−57,782
−57,321
−56,686
−55,891
−54,953
−53,889
−52,715
−51,447
−50,099
−48,688
−47,23
−45,738
−44,226
−42,707
−41,193
−39,695
−38,222
−36,784
−35,39
−34,046
−32,759
−31,536
−30,382
−29,301
−28,299
−27,377
−26,539
−25,787
−25,123
−24,547
−24,06
−23,662
−23,351
−23,126
−22,986
−22,928
−22,949
−23,047
−23,218
−23,457
−23,761
−24,124
−24,541
−25,008
−25,518
−26,068
−26,651
−27,262
−27,898
−28,552
−29,22
−29,899
−30,583
−31,269
−31,952
−32,629
−33,296
−33,949
−34,586
−35,203
−35,798
−36,367
−36,909
−37,421
−37,902
−38,35
−38,765
−39,146
−39,492
−39,804
−40,083
−40,33
−40,545
−40,732
−40,891
−41,026
−41,139
−41,233
−41,31
−41,374
−41,427
−41,472
−41,512
−41,55
−41,588
−41,629
−41,676
−41,73
−41,794
−41,87
−41,961
−42,069
−42,195
−42,342
−42,511
−42,704
−42,921
−43,165
−43,436
−43,734
−44,06
−44,413
−44,792
−45,197
−45,627
−46,08
−46,555
−47,049
−47,561
−48,087
−48,626
−49,176
−49,732
−50,294
−50,859
−51,424
−51,987
−52,547
−53,101
−53,647
−54,184
−54,709
−55,221
−55,718
−56,198
−56,659
−57,098
−57,516
−57,909
−58,276
−58,617
−58,93
−59,214
−59,469
−59,693
−59,887
−60,05
−60,183
−60,284
−60,356
−60,399
−60,413
−60,4
−60,36
−60,295
−60,205
−60,093
−59,957
−59,8
−59,622
−59,424
−59,207
−58,972
−58,72
−58,453
−58,171
−57,877
−57,573
−57,26
−56,94
−56,615
−56,287
−55,959
−55,632
−55,308
−54,99
−54,68
−54,38
−54,093
−53,82
−53,563
−53,324
−53,104
−52,904
−52,726
−52,571
−52,44
−52,334
−52,255
−52,202
−52,178
−52,183
−52,218
−52,284
−52,38
−52,508
−52,665
−52,853
−53,07
−53,315
−53,587
−53,884
−54,205
−54,549
−54,912
−55,292
−55,687
−56,094
−56,51
−56,933
−57,358
−57,784
−58,208
−58,627
−59,039
−59,441
−59,832
−60,208
−60,569
−60,911
−61,232
−61,532
−61,807
−62,056
−62,278
−62,472
−62,636
−62,77
−62,873
−62,946
−62,989
−63,002
−62,985
−62,94
−62,869
−62,771
−62,651
−62,508
−62,347
−62,169
−61,977
−61,774
−61,562
−61,344
−61,123
−60,9
−60,678
−60,46
−60,246
−60,04
−59,844
−59,659
−59,487
−59,331
−59,191
−59,07
−58,969
−58,89
−58,832
−58,797
−58,786
−58,799
−58,836
−58,897
−58,982
−59,09
−59,22
−59,372
−59,542
−59,73
−59,933
−60,15
−60,378
−60,616
−60,86
−61,108
−61,36
−61,612
−61,863
−62,112
−62,355
−62,592
−62,82
−63,038
−63,244
−63,436
−63,614
−63,775
−63,919
−64,044
−64,149
−64,234
−64,296
−64,336
−64,353
−64,347
−64,319
−64,268
−64,197
−64,105
−63,995
−63,869
−63,729
−63,576
−63,414
−63,244
−63,069
−62,892
−62,714
−62,538
−62,366
−62,202
−62,046
−61,901
−61,768
−61,651
−61,55
−61,467
−61,404
−61,361
−61,34
−61,342
−61,369
−61,42
−61,498
−61,601
−61,73
−61,885
−62,063
−62,264
−62,486
−62,725
−62,978
−63,243
−63,515
−63,79
−64,064
−64,331
−64,587
−64,826
−65,043
−65,233
−65,39
−65,507
−65,581
−65,604
−65,573
−65,481
−65,324
−65,097
−64,797
−64,417
−63,955
−63,406
−62,765
−62,031
−61,198
−60,266
−59,23
−58,091
−56,847
−55,498
−54,046
−52,491
−50,835
−49,083
−47,236
−45,301
−43,281
−41,183
−39,013
−36,78
−34,491
−32,155
−29,783
−27,384
−24,969
−22,548
−20,133
−17,735
−15,366
−13,036
−10,758
−8,543
−6,401
−4,343
−2,381
−0,525
1,214
2,826
4,302
5,633
6,809
7,823
8,666
9,333
9,824
10,136
10,269
10,22
9,987
9,57
8,973
8,203
7,265
6,168
4,921
3,543
2,065
0,513
−1,089
−2,718
−4,365
−6,014
−7,642
−9,225
−10,738
−12,158
−13,479
−14,693
−15,781
−16,732
−17,551
−18,268
−18,955
−19,675
−20,471
−21,369
−22,374
−23,512
−24,833
−26,37
−28,157
−30,232
−32,586
−35,277
−38,424
−41,996
−45,896
−49,936
−53,672
−56,71
−58,805
−59,545
−58,569
−55,948
−51,755
−46,282
−40,62
−35,811
−32,511
−31,709
−33,209
−34,966
−36,564
−38,044
−39,537
−43,457
−47,381
−44,52
−28,646
6,554
60,187
124,732
192,122
255,165
310,949
357,531
392,513
412,307
411,955
391,67
353,547
300,858
239,16
170,127
95,594
19,141
−56,433
−126,482
−186,423
−233,464
−265,927
−283,128
−286,08
−277,513
−259,197
−232,809
−199,657
−159,134
−114,589
−72,694
−39,635
−22,329
−21,017
−29,289
−41,128
−49,782
−52,821
−52,732
−50,622
−47,599
−43,863
−37,851
−29,589
−20,048
−10,08
−0,985
6,449
12,148
16,016
18,107
18,737
18,229
16,972
15,427
13,857
12,39
11,155
10,217
9,632
9,463
9,697
10,297
11,258
12,576
14,251
16,278
18,608
21,181
23,943
26,84
29,831
32,87
35,885
38,819
41,621
44,256
46,712
48,976
51,036
52,89
54,547
56,023
57,346
58,54
59,624
60,619
61,548
62,44
63,329
64,246
65,212
66,247
67,366
68,584
69,918
71,38
72,973
74,705
76,579
78,602
80,783
83,127
85,64
88,322
91,175
94,202
97,409
100,8
104,38
108,153
112,119
116,282
120,643
125,204
129,96
134,906
140,034
145,338
150,813
156,455
162,257
168,202
174,271
180,443
186,686
192,975
199,281
205,568
211,808
217,982
224,071
230,073
235,982
241,784
247,457
252,973
258,298
263,415
268,309
272,969
277,397
281,596
285,57
289,34
292,911
296,26
299,358
302,15
304,569
306,57
308,125
309,216
309,846
310,01
309,698
308,896
307,575
305,694
303,211
300,061
296,193
291,593
286,268
280,256
273,627
266,434
258,712
250,485
241,751
232,497
222,732
212,476
201,763
190,659
179,242
167,619
155,906
144,204
132,592
121,12
109,805
98,664
87,738
77,077
66,755
56,87
47,494
38,681
30,48
22,91
15,964
9,614
3,799
−1,556
−6,504
−11,078
−15,292
−19,143
−22,651
−25,845
−28,764
−31,469
−34,004
−36,406
−38,712
−40,948
−43,123
−45,231
−47,241
−49,1
−50,773
−52,243
−53,503
−54,563
−55,426
−56,09
−56,556
−56,826
−56,9
−56,784
−56,48
−55,989
−55,322
−54,497
−53,543
−52,503
−51,407
−50,28
−49,14
−48
−46,871
−45,765
−44,687
−43,639
−42,623
−41,642
−40,701
−39,807
−38,963
−38,169
−37,424
−36,724
−36,063
−35,442
−34,857
−34,307
−33,789
−33,302
−32,846
−32,422
−32,031
−31,671
−31,342
−31,041
−30,767
−30,516
−30,288
−30,08
−29,89
−29,715
−29,556
−29,411
−29,279
−29,162
−29,057
−28,966
−28,888
−28,823
−28,773
−28,736
−28,712
−28,703
−28,707
−28,724
−28,755
−28,801
−28,86
−28,934
−29,023
−29,128
−29,248
−29,384
−29,537
−29,706
−29,892
−30,096
−30,317
−30,556
−30,814
−31,09
−31,384
−31,697
−32,027
−32,375
−32,739
−33,118
−33,511
−33,917
−34,333
−34,759
−35,194
−35,636
−36,085
−36,539
−36,997
−37,459
−37,923
−38,389
−38,855
−39,319
−39,782
−40,241
−40,694
−41,141
−41,579
−42,007
−42,423
−42,826
−43,213
−43,584
−43,936
−44,269
−44,58
−44,869
−45,134
−45,376
−45,593
−45,785
−45,952
−46,094
−46,212
−46,305
−46,374
−46,419
−46,44
−46,438
−46,412
−46,364
−46,293
−46,201
−46,088
−45,956
−45,806
−45,64
−45,459
−45,267
−45,065
−44,857
−44,643
−44,429
−44,215
−44,006
−43,804
−43,613
−43,435
−43,273
−43,13
−43,008
−42,91
−42,837
−42,792
−42,775
−42,789
−42,834
−42,912
−43,024
−43,17
−43,352
−43,571
−43,826
−44,119
−44,449
−44,816
−45,22
−45,658
−46,131
−46,635
−47,169
−47,731
−48,318
−48,927
−49,554
−50,198
−50,853
−51,517
−52,185
−52,855
−53,521
−54,182
−54,832
−55,47
−56,093
−56,696
−57,279
−57,839
−58,374
−58,882
−59,361
−59,809
−60,225
−60,608
−60,956
−61,269
−61,546
−61,787
−61,992
−62,162
−62,297
−62,399
−62,47
−62,511
−62,524
−62,512
−62,478
−62,425
−62,355
−62,272
−62,179
−62,081
−61,98
−61,88
−61,783
−61,694
−61,614
−61,546
−61,492
−61,455
−61,436
−61,436
−61,459
−61,504
−61,574
−61,668
−61,789
−61,937
−62,112
−62,314
−62,544
−62,801
−63,085
−63,394
−63,729
−64,087
−64,467
−64,867
−65,286
−65,722
−66,172
−66,634
−67,106
−67,585
−68,069
−68,556
−69,044
−69,531
−70,015
−70,494
−70,968
−71,436
−71,895
−72,346
−72,789
−73,222
−73,645
−74,058
−74,461
−74,853
−75,236
−75,607
−75,968
−76,318
−76,658
−76,987
−77,305
−77,613
−77,911
−78,2
−78,48
−78,752
−79,016
−79,273
−79,523
−79,766
−80,001
−80,229
−80,448
−80,659
−80,859
−81,049
−81,227
−81,392
−81,541
−81,674
−81,787
−81,878
−81,944
−81,984
−81,993
−81,97
−81,912
−81,816
−81,682
−81,507
−81,289
−81,027
−80,719
−80,361
−79,953
−79,492
−78,975
−78,4
−77,765
−77,067
−76,308
−75,486
−74,601
−73,656
−72,652
−71,592
−70,48
−69,316
−68,104
−66,843
−65,536
−64,185
−62,792
−61,361
−59,895
−58,402
−56,887
−55,362
−53,833
−52,307
−50,787
−49,273
−47,771
−46,287
−44,828
−43,406
−42,035
−40,736
−39,536
−38,465
−37,541
−36,779
−36,183
−35,751
−35,479
−35,362
−35,389
−35,561
−35,877
−36,334
−36,934
−37,67
−38,514
−39,432
−40,367
−41,251
−42,036
−42,681
−43,151
−43,439
−43,54
−43,468
−43,257
−42,925
−42,477
−41,914
−41,229
−40,429
−39,554
−38,658
−37,82
−37,14
−36,709
−36,63
−37,003
−37,906
−39,395
−41,492
−44,186
−47,469
−51,341
−55,807
−60,861
−66,487
−72,637
−79,256
−86,26
−93,536
−100,965
−108,361
−115,493
−122,058
−127,623
−131,714
−133,943
−134,072
−131,911
−127,389
−120,522
−111,578
−101,48
−91,497
−82,705
−74,926
−66,944
−57,799
−47,324
−37,765
−31,901
−29,43
−27,169
−18,311
5,087
47,07
107,775
182,29
260,872
332,266
384,458
409,083
404,401
374,327
327,981
273,68
215,636
154,81
89,368
18,881
−54,281
−125,824
−190,315
−243,763
−283,924
−309,744
−322,253
−322,538
−310,461
−287,799
−255,307
−213,736
−168,927
−125,151
−87,052
−60,366
−43,554
−34,317
−30,642
−28,628
−28,566
−31,119
−35,164
−39,88
−43,304
−44,011
−41,977
−37,542
−31,534
−24,669
−17,619
−11,365
−6,509
−3,301
−1,778
−1,589
−2,348
−3,787
−5,53
−7,154
−8,389
−9,04
−9,019
−8,382
−7,168
−5,399
−3,137
−0,441
2,634
6,022
9,656
13,477
17,4
21,339
25,225
29,004
32,628
36,058
39,262
42,22
44,928
47,389
49,607
51,584
53,328
54,855
56,193
57,374
58,436
59,418
60,352
61,267
62,188
63,137
64,13
65,182
66,303
67,501
68,787
70,175
71,682
73,322
75,105
77,042
79,144
81,421
83,882
86,535
89,387
92,448
95,73
99,242
102,995
106,998
111,257
115,775
120,556
125,599
130,902
136,459
142,261
148,3
154,568
161,057
167,757
174,655
181,724
188,942
196,288
203,738
211,268
218,848
226,442
234,024
241,576
249,077
256,509
263,843
271,039
278,061
284,874
291,449
297,774
303,828
309,583
315,02
320,124
324,882
329,293
333,326
336,935
340,08
342,725
344,857
346,48
347,591
348,192
348,276
347,821
346,812
345,236
343,066
340,272
336,832
332,723
327,96
322,59
316,646
310,161
303,146
295,599
287,525
278,927
269,816
260,224
250,198
239,802
229,13
218,274
207,316
196,335
185,378
174,472
163,654
152,96
142,443
132,165
122,189
112,591
103,441
94,778
86,624
78,964
71,752
64,948
58,524
52,448
46,713
41,314
36,241
31,494
27,064
22,93
19,063
15,415
11,938
8,606
5,409
2,36
−0,505
−3,164
−5,603
−7,806
−9,769
−11,494
−12,982
−14,252
−15,322
−16,203
−16,901
−17,408
−17,718
−17,837
−17,776
−17,559
−17,216
−16,77
−16,244
−15,662
−15,043
−14,401
−13,749
−13,09
−12,421
−11,747
−11,072
−10,402
−9,746
−9,108
−8,49
−7,892
−7,313
−6,753
−6,21
−5,68
−5,162
−4,654
−4,156
−3,669
−3,197
−2,739
−2,297
−1,871
−1,463
−1,071
−0,697
−0,339
0,003
0,328
0,637
0,929
1,201
1,454
1,686
1,896
2,082
2,243
2,376
2,48
2,554
2,596
2,602
2,573
2,505
2,398
2,25
2,061
1,83
1,556
1,24
0,882
0,483
0,043
−0,437
−0,955
−1,507
−2,092
−2,706
−3,348
−4,018
−4,71
−5,416
−6,142
−6,891
−7,664
−8,465
−9,284
−10,105
−10,934
−11,779
−12,61
−13,404
−14,141
−14,792
−15,374
−15,926
−16,422
−16,818
−17,22
−17,754
−18,34
−18,986
−19,715
−20,25
−21,333
−23,684
−26,274
−28,789
−29,34
−25,661
−20,26
−14,81
−11,8
−14,651
−20,339
−26,303
−30,789
−30,896
−28,699
−26,303
−24,178
−23,607
−23,846
−23,941
−24,075
−24,128
−24,165
−24,38
−24,649
−24,869
−25,075
−25,276
−25,458
−25,626
−25,786
−25,942
−26,112
−26,318
−26,55
−26,798
−27,065
−27,349
−27,648
−27,964
−28,291
−28,625
−28,967
−29,315
−29,668
−30,024
−30,382
−30,738
−31,092
−31,441
−31,782
−32,113
−32,433
−32,738
−33,026
−33,296
−33,545
−33,772
−33,974
−34,15
−34,298
−34,416
−34,504
−34,559
−34,581
−34,569
−34,523
−34,441
−34,325
−34,174
−33,989
−33,77
−33,519
−33,236
−32,923
−32,581
−32,211
−31,815
−31,395
−30,953
−30,492
−30,013
−29,52
−29,015
−28,502
−27,982
−27,458
−26,934
−26,411
−25,893
−25,381
−24,879
−24,39
−23,914
−23,456
−23,017
−22,599
−22,204
−21,833
−21,489
−21,172
−20,884
−20,624
−20,393
−20,192
−20,021
−19,879
−19,767
−19,683
−19,627
−19,598
−19,593
−19,612
−19,653
−19,713
−19,791
−19,883
−19,99
−20,107
−20,233
−20,367
−20,506
−20,647
−20,791
−20,933
−21,074
−21,21
−21,341
−21,464
−21,58
−21,687
−21,784
−21,871
−21,947
−22,013
−22,067
−22,111
−22,145
−22,169
−22,184
−22,191
−22,191
−22,187
−22,179
−22,17
−22,162
−22,156
−22,156
−22,162
−22,178
−22,206
−22,246
−22,302
−22,375
−22,467
−22,579
−22,713
−22,871
−23,053
−23,26
−23,495
−23,756
−24,045
−24,362
−24,706
−25,078
−25,478
−25,905
−26,358
−26,837
−27,341
−27,869
−28,419
−28,991
−29,581
−30,19
−30,814
−31,452
−32,102
−32,761
−33,428
−34,1
−34,776
−35,454
−36,132
−36,808
−37,481
−38,149
−38,81
−39,464
−40,109
−40,745
−41,37
−41,983
−42,585
−43,175
−43,752
−44,317
−44,871
−45,412
−45,942
−46,46
−46,967
−47,465
−47,952
−48,431
−48,903
−49,368
−49,829
−50,286
−50,74
−51,194
−51,649
−52,105
−52,566
−53,031
−53,502
−53,981
−54,47
−54,969
−55,481
−56,007
−56,548
−57,106
−57,683
−58,279
−58,896
−59,535
−60,196
−60,88
−61,588
−62,321
−63,079
−63,863
−64,674
−65,512
−66,378
−67,271
−68,191
−69,138
−70,111
−71,109
−72,132
−73,18
−74,25
−75,341
−76,453
−77,583
−78,731
−79,893
−81,068
−82,252
−83,442
−84,635
−85,827
−87,014
−88,191
−89,355
−90,502
−91,628
−92,731
−93,805
−94,849
−95,857
−96,827
−97,755
−98,636
−99,464
−100,232
−100,937
−101,573
−102,138
−102,628
−103,04
−103,369
−103,615
−103,777
−103,854
−103,844
−103,739
−103,531
−103,218
−102,806
−102,306
−101,723
−101,065
−100,337
−99,551
−98,722
−97,858
−96,96
−96,016
−95,014
−93,949
−92,828
−91,664
−90,473
−89,257
−88,011
−86,723
−85,39
−84,01
−82,578
−81,072
−79,466
−77,751
−75,949
−74,105
−72,265
−70,46
−68,704
−67,001
−65,362
−63,806
−62,361
−61,05
−59,883
−58,875
−58,053
−57,464
−57,161
−57,171
−57,479
−58,04
−58,811
−59,769
−60,904
−62,21
−63,665
−65,244
−66,927
−68,707
−70,588
−72,564
−74,608
−76,671
−78,704
−80,678
−82,591
−84,458
−86,273
−88,021
−89,683
−91,244
−92,708
−94,077
−95,333
−96,445
−97,381
−98,121
−98,67
−99,05
−99,274
−99,356
−99,319
−99,196
−99,067
−99,014
−99,1
−99,379
−99,88
−100,641
−101,731
−103,222
−105,17
−107,622
−110,563
−113,979
−117,926
−122,349
−127,105
−131,965
−136,509
−140,368
−143,368
−145,248
−145,666
−144,548
−141,911
−137,995
−133,554
−129,067
−124,625
−120,644
−117,62
−115,573
−114,398
−112,869
−108,314
−98,926
−84,117
−65,234
−45,103
−25,724
−6,684
17,164
52,214
103,413
171,532
247,49
316,631
363,041
374,425
349,031
294,583
224,89
151,36
78,684
5,816
−73,384
−158,382
−240,91
−311,414
−358,098
−378,031
−377,569
−362,565
−340,334
−314,501
−283,598
−248,378
−210,544
−172,325
−137,766
−109,767
−89,309
−76,425
−70,187
−69,218
−72,022
−77,276
−83,461
−88,691
−91,857
−92,562
−90,696
−86,725
−81,317
−74,928
−68,285
−62,423
−57,878
−54,842
−53,332
−52,972
−53,394
−54,401
−55,652
−56,737
−57,413
−57,495
−56,899
−55,71
−53,982
−51,741
−49,056
−45,982
−42,581
−38,949
−35,168
−31,318
−27,476
−23,687
−19,992
−16,429
−13,029
−9,827
−6,844
−4,074
−1,512
0,844
3,002
4,96
6,733
8,357
9,871
11,319
12,736
14,144
15,566
17,023
18,533
20,115
21,777
23,523
25,359
27,297
29,351
31,535
33,859
36,327
38,94
41,705
44,629
47,721
50,986
54,427
58,047
61,855
65,87
70,097
74,524
79,143
83,941
88,918
94,096
99,476
105,024
110,753
116,712
122,938
129,482
136,339
143,425
150,704
158,226
165,887
173,396
180,673
187,765
194,609
201,483
207,808
211,905
214,181
216,141
220,349
231,566
249,331
268,855
285,316
291,882
288,311
281,005
274,913
275,453
283,412
293,962
304,161
311,896
316,565
320,101
323,331
326,186
328,705
330,553
331,637
332,201
332,292
331,841
330,814
329,156
326,827
323,82
320,142
315,822
310,903
305,442
299,481
293,051
286,19
278,946
271,355
263,448
255,267
246,851
238,265
229,595
220,903
212,22
203,563
194,916
186,281
177,673
169,104
160,585
152,131
143,754
135,479
127,347
119,382
111,602
104,016
96,616
89,407
82,406
75,636
69,128
62,905
56,985
51,385
46,123
41,213
36,661
32,467
28,619
25,109
21,933
19,087
16,568
14,369
12,481
10,89
9,584
8,546
7,764
7,218
6,89
6,761
6,814
7,035
7,409
7,922
8,559
9,304
10,143
11,062
12,045
13,08
14,152
15,246
16,352
17,458
18,555
19,633
20,684
21,701
22,678
23,609
24,491
25,318
26,087
26,796
27,442
28,026
28,546
29,003
29,397
29,73
30,005
30,223
30,387
30,499
30,564
30,583
30,56
30,498
30,4
30,27
30,111
29,927
29,72
29,494
29,252
28,997
28,73
28,454
28,171
27,882
27,588
27,29
26,988
26,684
26,378
26,07
25,76
25,448
25,133
24,815
24,493
24,165
23,831
23,488
23,136
22,774
22,399
22,011
21,607
21,187
20,749
20,292
19,814
19,315
18,793
18,247
17,676
17,081
16,462
15,817
15,148
14,455
13,738
12,999
12,238
11,456
10,654
9,835
8,998
8,147
7,282
6,406
5,521
4,629
3,733
2,835
1,938
1,045
0,157
−0,722
−1,588
−2,441
−3,276
−4,09
−4,883
−5,65
−6,389
−7,099
−7,777
−8,422
−9,031
−9,605
−10,141
−10,639
−11,099
−11,519
−11,899
−12,239
−12,54
−12,802
−13,024
−13,209
−13,356
−13,467
−13,543
−13,585
−13,596
−13,575
−13,527
−13,452
−13,353
−13,233
−13,094
−12,939
−12,77
−12,59
−12,403
−12,21
−12,015
−11,819
−11,626
−11,437
−11,254
−11,08
−10,917
−10,765
−10,627
−10,504
−10,397
−10,308
−10,236
−10,184
−10,151
−10,138
−10,145
−10,173
−10,222
−10,291
−10,382
−10,493
−10,625
−10,775
−10,945
−11,132
−11,336
−11,554
−11,786
−12,03
−12,285
−12,549
−12,82
−13,098
−13,38
−13,666
−13,954
−14,242
−14,53
−14,815
−15,098
−15,376
−15,649
−15,917
−16,177
−16,431
−16,677
−16,914
−17,142
−17,36
−17,567
−17,763
−17,947
−18,119
−18,278
−18,423
−18,556
−18,675
−18,781
−18,874
−18,954
−19,021
−19,077
−19,12
−19,152
−19,172
−19,181
−19,18
−19,168
−19,147
−19,116
−19,077
−19,03
−18,975
−18,913
−18,844
−18,769
−18,687
−18,599
−18,506
−18,409
−18,307
−18,203
−18,097
−17,99
−17,884
−17,778
−17,676
−17,576
−17,482
−17,393
−17,311
−17,237
−17,172
−17,117
−17,076
−17,047
−17,034
−17,038
−17,059
−17,1
−17,162
−17,245
−17,352
−17,482
−17,638
−17,821
−18,032
−18,272
−18,543
−18,845
−19,18
−19,548
−19,949
−20,384
−20,853
−21,356
−21,893
−22,463
−23,066
−23,702
−24,369
−25,068
−25,797
−26,554
−27,339
−28,148
−28,981
−29,834
−30,706
−31,594
−32,495
−33,407
−34,327
−35,253
−36,182
−37,111
−38,037
−38,958
−39,87
−40,77
−41,655
−42,523
−43,371
−44,197
−44,997
−45,771
−46,517
−47,232
−47,915
−48,565
−49,181
−49,761
−50,304
−50,811
−51,28
−51,713
−52,11
−52,471
−52,799
−53,094
−53,36
−53,597
−53,809
−53,998
−54,166
−54,316
−54,452
−54,576
−54,692
−54,804
−54,915
−55,028
−55,148
−55,277
−55,419
−55,577
−55,754
−55,952
−56,174
−56,422
−56,699
−57,005
−57,344
−57,717
−58,123
−58,565
−59,043
−59,556
−60,103
−60,685
−61,298
−61,942
−62,614
−63,312
−64,032
−64,773
−65,53
−66,299
−67,077
−67,859
−68,641
−69,417
−70,183
−70,933
−71,662
−72,366
−73,039
−73,677
−74,275
−74,828
−75,332
−75,782
−76,175
−76,506
−76,771
−76,967
−77,09
−77,138
−77,109
−77
−76,81
−76,538
−76,182
−75,743
−75,22
−74,614
−73,925
−73,153
−72,301
−71,37
−70,363
−69,283
−68,133
−66,917
−65,639
−64,303
−62,914
−61,477
−59,998
−58,481
−56,933
−55,359
−53,768
−52,165
−50,558
−48,956
−47,366
−45,795
−44,253
−42,747
−41,285
−39,874
−38,522
−37,236
−36,021
−34,887
−33,838
−32,884
−32,03
−31,282
−30,646
−30,127
−29,732
−29,466
−29,331
−29,328
−29,455
−29,714
−30,106
−30,636
−31,303
−32,103
−33,031
−34,078
−35,238
−36,499
−37,844
−39,246
−40,674
−42,101
−43,508
−44,881
−46,205
−47,462
−48,625
−49,668
−50,575
−51,335
−51,946
−52,399
−52,691
−52,833
−52,857
−52,827
−52,821
−52,904
−53,131
−53,538
−54,15
−55,003
−56,155
−57,652
−59,533
−61,812
−64,455
−67,478
−70,941
−74,802
−78,913
−82,973
−86,521
−89,209
−90,842
−91,124
−89,735
−86,578
−81,691
−75,565
−69,117
−62,908
−57,364
−53,116
−50,569
−49,733
−49,725
−48,227
−42,699
−31,897
−17,049
−0,446
16,523
34,4
58,805
95,867
149,388
220,6
300,859
377,076
434,946
459,494
446,735
400,523
330,138
250,499
170,38
93,411
20,573
−51,037
−120,613
−183,991
−237,288
−276,603
−300,562
−310,497
−307,981
−294,382
−271,793
−242,768
−209,969
−176,112
−143,196
−112,312
−84,634
−61,659
−43,985
−31,427
−23,421
−18,931
−17,137
−17,564
−19,287
−20,922
−21,624
−21,068
−19,244
−16,563
−13,342
−9,706
−6,105
−3,286
−1,69
−1,451
−2,484
−4,416
−6,92
−9,811
−12,774
−15,389
−17,372
−18,547
−18,842
−18,341
−17,113
−15,183
−12,629
−9,546
−6,027
−2,183
1,886
6,1
10,359
14,581
18,697
22,633
26,339
29,783
32,94
35,807
38,392
40,698
42,735
44,521
46,073
47,421
48,6
49,645
50,595
51,483
52,335
53,178
54,03
54,906
55,819
56,774
57,777
58,838
59,967
61,176
62,476
63,879
65,392
67,027
68,791
70,689
72,731
74,925
77,28
79,808
82,52
85,424
88,534
91,858
95,403
99,178
103,186
107,424
111,891
116,586
121,506
126,652
132,017
137,591
143,358
149,304
155,407
161,648
167,998
174,418
180,873
187,326
193,749
200,125
206,434
212,649
218,747
224,702
230,496
236,128
241,59
246,871
251,967
256,869
261,591
266,161
270,593
274,896
279,068
283,078
286,906
290,533
293,928
297,063
299,899
302,368
304,421
306,019
307,103
307,626
307,519
306,686
305,06
302,586
299,21
294,919
289,706
283,557
276,494
268,537
259,71
250,08
239,701
228,624
216,936
204,719
192,07
179,125
166,006
152,832
139,746
126,851
114,235
101,994
90,192
78,898
68,194
58,122
48,719
40,023
32,035
24,756
18,183
12,271
6,97
2,218
−2,078
−5,984
−9,544
−12,814
−15,829
−18,634
−21,295
−23,851
−26,328
−28,753
−31,137
−33,49
−35,832
−38,15
−40,42
−42,609
−44,665
−46,554
−48,263
−49,778
−51,09
−52,19
−53,06
−53,694
−54,105
−54,298
−54,285
−54,075
−53,672
−53,094
−52,37
−51,532
−50,616
−49,653
−48,658
−47,649
−46,642
−45,649
−44,681
−43,744
−42,837
−41,961
−41,117
−40,309
−39,542
−38,815
−38,124
−37,465
−36,834
−36,229
−35,647
−35,087
−34,547
−34,025
−33,524
−33,045
−32,59
−32,161
−31,759
−31,383
−31,034
−30,71
−30,412
−30,138
−29,889
−29,662
−29,458
−29,278
−29,121
−28,989
−28,883
−28,803
−28,751
−28,728
−28,736
−28,775
−28,847
−28,953
−29,094
−29,271
−29,486
−29,738
−30,03
−30,36
−30,729
−31,137
−31,583
−32,065
−32,583
−33,134
−33,716
−34,328
−34,969
−35,635
−36,325
−37,037
−37,77
−38,522
−39,289
−40,07
−40,862
−41,662
−42,467
−43,275
−44,083
−44,887
−45,685
−46,474
−47,253
−48,018
−48,767
−49,498
−50,209
−50,898
−51,562
−52,201
−52,812
−53,395
−53,948
−54,472
−54,966
−55,43
−55,865
−56,271
−56,648
−56,998
−57,319
−57,615
−57,884
−58,129
−58,35
−58,549
−58,727
−58,886
−59,027
−59,152
−59,262
−59,36
−59,446
−59,522
−59,59
−59,65
−59,706
−59,757
−59,806
−59,855
−59,904
−59,956
−60,012
−60,073
−60,14
−60,216
−60,299
−60,392
−60,494
−60,608
−60,732
−60,868
−61,015
−61,175
−61,348
−61,532
−61,729
−61,937
−62,155
−62,385
−62,623
−62,871
−63,126
−63,388
−63,656
−63,929
−64,206
−64,486
−64,768
−65,051
−65,333
−65,613
−65,889
−66,16
−66,424
−66,681
−66,927
−67,164
−67,387
−67,598
−67,793
−67,972
−68,134
−68,278
−68,403
−68,507
−68,591
−68,655
−68,698
−68,72
−68,723
−68,706
−68,67
−68,617
−68,546
−68,46
−68,359
−68,245
−68,119
−67,982
−67,836
−67,682
−67,522
−67,358
−67,191
−67,023
−66,856
−66,69
−66,529
−66,374
−66,225
−66,085
−65,956
−65,838
−65,734
−65,644
−65,569
−65,509
−65,467
−65,441
−65,432
−65,438
−65,461
−65,498
−65,549
−65,612
−65,687
−65,771
−65,864
−65,963
−66,067
−66,175
−66,283
−66,392
−66,498
−66,6
−66,697
−66,787
−66,868
−66,939
−66,999
−67,045
−67,078
−67,096
−67,097
−67,081
−67,047
−66,994
−66,922
−66,831
−66,721
−66,591
−66,444
−66,28
−66,1
−65,906
−65,698
−65,48
−65,253
−65,019
−64,779
−64,536
−64,292
−64,049
−63,808
−63,571
−63,341
−63,117
−62,903
−62,699
−62,506
−62,326
−62,159
−62,005
−61,866
−61,742
−61,632
−61,538
−61,458
−61,393
−61,342
−61,305
−61,281
−61,269
−61,266
−61,272
−61,283
−61,3
−61,318
−61,335
−61,35
−61,361
−61,364
−61,36
−61,345
−61,319
−61,281
−61,229
−61,162
−61,08
−60,981
−60,866
−60,733
−60,584
−60,419
−60,238
−60,042
−59,832
−59,61
−59,378
−59,135
−58,884
−58,627
−58,364
−58,099
−57,833
−57,569
−57,311
−57,06
−56,82
−56,594
−56,385
−56,196
−56,027
−55,88
−55,757
−55,657
−55,583
−55,531
−55,502
−55,495
−55,511
−55,548
−55,607
−55,686
−55,783
−55,897
−56,025
−56,165
−56,311
−56,457
−56,596
−56,723
−56,835
−56,925
−56,989
−57,02
−57,013
−56,965
−56,871
−56,725
−56,517
−56,232
−55,862
−55,403
−54,858
−54,234
−53,535
−52,763
−51,925
−51,033
−50,093
−49,105
−48,059
−46,932
−45,709
−44,388
−42,972
−41,477
−39,907
−38,254
−36,508
−34,657
−32,688
−30,594
−28,354
−25,931
−23,315
−20,515
−17,562
−14,523
−11,444
−8,356
−5,282
−2,231
0,778
3,709
6,533
9,226
11,755
14,09
16,181
17,949
19,355
20,383
21,052
21,421
21,534
21,411
21,072
20,527
19,787
18,874
17,807
16,586
15,226
13,752
12,205
10,666
9,198
7,839
6,6
5,461
4,402
3,429
2,55
1,768
1,1
0,545
0,099
−0,221
−0,404
−0,468
−0,445
−0,416
−0,497
−0,77
−1,299
−2,133
−3,279
−4,782
−6,702
−9,068
−11,921
−15,273
−19,073
−23,343
−28,142
−33,396
−38,969
−44,606
−49,868
−54,439
−58,084
−60,439
−61,227
−60,362
−57,899
−54,209
−49,824
−45,198
−40,91
−37,628
−35,845
−34,933
−33,099
−28,595
−19,831
−8,042
3,075
11,941
18,091
26,438
47,195
87,623
152,733
237,907
327,76
404,649
449,676
454,093
421,2
360,876
289,053
216,046
145,18
76,61
6,523
−65,364
−134,841
−197,155
−247,051
−281,41
−300,129
−304,002
−294,089
−272,08
−240,595
−202,645
−161,409
−120,13
−81,14
−46,431
−18,288
2,072
14,699
20,115
19,52
14,602
6,646
−2,772
−11,502
−18,247
−22,476
−23,944
−23,026
−20,334
−16,259
−11,544
−7,3
−4,095
−2,126
−1,42
−1,642
−2,487
−3,794
−5,208
−6,253
−6,657
−6,273
−5,07
−3,186
−0,705
2,344
5,864
9,737
13,848
18,073
22,324
26,567
30,761
34,866
38,85
42,674
46,301
49,713
52,936
55,993
58,899
61,674
64,311
66,792
69,176
71,541
73,813
75,887
77,853
79,72
81,478
83,41
84,808
84,981
84,921
84,938
86,861
92,885
100,606
108,421
113,943
113,888
111,173
108,273
106,882
109,801
115,039
120,582
125,99
130,041
133,46
137,175
141,019
145,116
149,412
153,725
158,178
162,871
167,776
172,887
178,221
183,773
189,531
195,481
201,595
207,836
214,193
220,647
227,161
233,707
240,254
246,774
253,246
259,641
265,93
272,089
278,09
283,912
289,55
294,998
300,26
305,356
310,305
315,135
319,885
324,572
329,212
333,816
338,383
342,913
347,397
351,811
356,137
360,351
364,406
368,239
371,767
374,866
377,426
379,334
380,464
380,72
380,01
378,246
375,374
371,356
366,166
359,798
352,247
343,492
333,562
322,518
310,462
297,551
283,928
269,738
255,15
240,32
225,416
210,598
195,987
181,674
167,75
154,297
141,409
129,203
117,75
107,084
97,201
88,056
79,616
71,839
64,662
58,003
51,766
45,866
40,257
34,915
29,818
24,931
20,207
15,579
11,009
6,485
2,005
−2,417
−6,775
−11,057
−15,231
−19,247
−23,044
−26,58
−29,84
−32,824
−35,535
−37,97
−40,117
−41,965
−43,52
−44,792
−45,793
−46,535
−47,029
−47,289
−47,345
−47,236
−47,004
−46,682
−46,289
−45,843
−45,355
−44,842
−44,317
−43,789
−43,261
−42,737
−42,223
−41,728
−41,259
−40,822
−40,415
−40,035
−39,68
−39,348
−39,038
−38,749
−38,479
−38,228
−37,996
−37,785
−37,597
−37,432
−37,292
−37,175
−37,079
−37,004
−36,949
−36,913
−36,894
−36,89
−36,902
−36,93
−36,974
−37,034
−37,11
−37,202
−37,312
−37,439
−37,584
−37,747
−37,928
−38,128
−38,348
−38,588
−38,848
−39,13
−39,433
−39,759
−40,106
−40,475
−40,866
−41,278
−41,711
−42,162
−42,632
−43,119
−43,622
−44,14
−44,671
−45,215
−45,77
−46,334
−46,905
−47,482
−48,063
−48,644
−49,225
−49,804
−50,377
−50,942
−51,499
−52,046
−52,58
−53,1
−53,606
−54,096
−54,569
−55,024
−55,461
−55,88
−56,28
−56,661
−57,023
−57,368
−57,695
−58,006
−58,301
−58,581
−58,848
−59,103
−59,346
−59,58
−59,805
−60,022
−60,233
−60,44
−60,644
−60,845
−61,046
−61,248
−61,452
−61,659
−61,869
−62,085
−62,307
−62,535
−62,769
−63,01
−63,258
−63,513
−63,775
−64,044
−64,319
−64,601
−64,889
−65,181
−65,479
−65,78
−66,084
−66,39
−66,697
−67,005
−67,313
−67,621
−67,926
−68,23
−68,531
−68,829
−69,123
−69,412
−69,697
−69,975
−70,248
−70,514
−70,773
−71,024
−71,269
−71,506
−71,735
−71,957
−72,171
−72,377
−72,576
−72,766
−72,95
−73,126
−73,295
−73,457
−73,613
−73,762
−73,904
−74,042
−74,173
−74,3
−74,421
−74,538
−74,65
−74,758
−74,861
−74,961
−75,057
−75,15
−75,24
−75,327
−75,413
−75,496
−75,579
−75,66
−75,741
−75,821
−75,901
−75,982
−76,063
−76,146
−76,23
−76,315
−76,403
−76,493
−76,584
−76,679
−76,775
−76,875
−76,977
−77,081
−77,187
−77,295
−77,405
−77,516
−77,628
−77,74
−77,852
−77,963
−78,072
−78,178
−78,281
−78,379
−78,472
−78,558
−78,636
−78,705
−78,763
−78,81
−78,844
−78,865
−78,871
−78,861
−78,835
−78,792
−78,732
−78,652
−78,554
−78,437
−78,301
−78,144
−77,968
−77,773
−77,559
−77,327
−77,077
−76,81
−76,528
−76,231
−75,921
−75,599
−75,267
−74,926
−74,579
−74,228
−73,873
−73,519
−73,167
−72,819
−72,478
−72,146
−71,825
−71,517
−71,224
−70,947
−70,689
−70,449
−70,23
−70,032
−69,856
−69,704
−69,575
−69,47
−69,389
−69,332
−69,297
−69,285
−69,294
−69,323
−69,371
−69,435
−69,514
−69,607
−69,711
−69,824
−69,944
−70,069
−70,195
−70,32
−70,441
−70,554
−70,656
−70,745
−70,818
−70,873
−70,909
−70,923
−70,913
−70,88
−70,822
−70,738
−70,627
−70,489
−70,323
−70,129
−69,908
−69,662
−69,39
−69,096
−68,782
−68,451
−68,104
−67,745
−67,376
−67
−66,62
−66,238
−65,857
−65,482
−65,115
−64,761
−64,423
−64,106
−63,814
−63,55
−63,317
−63,116
−62,949
−62,817
−62,721
−62,661
−62,635
−62,645
−62,689
−62,768
−62,882
−63,031
−63,214
−63,428
−63,672
−63,943
−64,235
−64,544
−64,862
−65,181
−65,494
−65,797
−66,083
−66,347
−66,583
−66,788
−66,958
−67,088
−67,171
−67,198
−67,155
−67,03
−66,82
−66,523
−66,144
−65,692
−65,177
−64,609
−64,004
−63,373
−62,718
−62,033
−61,299
−60,499
−59,622
−58,663
−57,632
−56,539
−55,383
−54,169
−52,895
−51,539
−50,081
−48,491
−46,716
−44,722
−42,497
−40,039
−37,383
−34,586
−31,692
−28,756
−25,822
−22,913
−20,063
−17,288
−14,603
−12,055
−9,699
−7,6
−5,863
−4,576
−3,802
−3,614
−4,026
−5,001
−6,5
−8,44
−10,733
−13,319
−16,141
−19,156
−22,33
−25,596
−28,882
−32,114
−35,174
−37,951
−40,329
−42,155
−43,324
−43,792
−43,544
−42,629
−41,131
−39,102
−36,601
−33,692
−30,424
−26,879
−23,13
−19,231
−15,267
−11,332
−7,552
−4,121
−1,223
1,003
2,444
3,06
2,859
1,826
−0,041
−2,725
−6,21
−10,443
−15,365
−20,98
−27,307
−34,292
−41,766
−49,412
−56,785
−63,5
−69,287
−73,854
−76,843
−78,023
−77,391
−75,243
−72,228
−68,917
−65,539
−62,353
−59,793
−58,1
−57,16
−56,344
−54,302
−49,746
−41,969
−29,921
−12,098
12,606
44,999
84,252
127,412
172,845
219,852
267,921
317,69
365,012
402,019
421,43
415,297
382,627
329,147
261,774
189,397
115,874
41,161
−34,668
−111,281
−182,309
−240,648
−280,723
−298,405
−297,394
−282,083
−256,715
−227,198
−194,731
−160,731
−127,583
−95,976
−68,528
−47,564
−33,237
−25,26
−22,424
−22,818
−25,197
−28,51
−31,281
−32,334
−31,126
−27,524
−21,907
−15,062
−7,577
−0,017
6,762
12,152
15,883
17,845
18,247
17,479
15,84
13,677
11,443
9,428
7,814
6,755
6,258
6,31
6,927
8,068
9,678
11,731
14,189
17,007
20,158
23,578
27,183
30,904
34,653
38,365
41,996
45,493
48,824
51,97
54,92
57,673
60,237
62,614
64,811
66,849
68,744
70,519
72,207
73,834
75,437
77,046
78,679
80,356
82,089
83,884
85,75
87,692
89,71
91,808
93,992
96,267
98,64
101,117
103,702
106,398
109,204
112,123
115,154
118,301
121,564
124,948
128,454
132,089
135,855
139,758
143,801
147,983
152,306
156,767
161,361
166,083
170,927
175,888
180,963
186,149
191,434
196,808
202,256
207,759
213,298
218,851
224,383
229,862
235,256
240,535
245,681
250,681
255,515
260,165
264,609
268,834
272,846
276,655
280,268
283,692
286,934
290,006
292,948
295,795
298,573
301,297
303,958
306,542
309,044
311,464
313,782
315,961
317,927
319,586
320,866
321,697
322,009
321,727
320,735
318,928
316,235
312,603
308,009
302,439
295,856
288,225
279,549
269,872
259,289
247,927
235,889
223,281
210,223
196,85
183,342
169,864
156,538
143,461
130,715
118,387
106,587
95,44
85,016
75,35
66,434
58,233
50,727
43,889
37,669
31,988
26,74
21,835
17,222
12,875
8,766
4,856
1,086
−2,615
−6,283
−9,93
−13,556
−17,148
−20,704
−24,212
−27,639
−30,93
−34,022
−36,868
−39,451
−41,768
−43,818
−45,593
−47,077
−48,258
−49,14
−49,733
−50,047
−50,095
−49,886
−49,437
−48,78
−47,955
−47,007
−45,969
−44,864
−43,71
−42,523
−41,32
−40,118
−38,928
−37,756
−36,609
−35,498
−34,432
−33,424
−32,481
−31,604
−30,794
−30,051
−29,374
−28,764
−28,222
−27,749
−27,344
−27,009
−26,746
−26,556
−26,441
−26,399
−26,427
−26,523
−26,683
−26,903
−27,18
−27,509
−27,887
−28,309
−28,772
−29,274
−29,81
−30,377
−30,972
−31,591
−32,23
−32,886
−33,556
−34,234
−34,92
−35,609
−36,299
−36,988
−37,673
−38,352
−39,024
−39,686
−40,338
−40,977
−41,602
−42,212
−42,807
−43,387
−43,95
−44,499
−45,032
−45,551
−46,056
−46,547
−47,027
−47,494
−47,949
−48,392
−48,825
−49,246
−49,656
−50,056
−50,446
−50,827
−51,199
−51,563
−51,92
−52,271
−52,617
−52,957
−53,294
−53,629
−53,961
−54,293
−54,626
−54,96
−55,296
−55,635
−55,979
−56,326
−56,678
−57,034
−57,395
−57,76
−58,131
−58,505
−58,885
−59,269
−59,659
−60,054
−60,454
−60,86
−61,272
−61,69
−62,114
−62,545
−62,981
−63,424
−63,872
−64,325
−64,784
−65,247
−65,714
−66,183
−66,653
−67,123
−67,593
−68,059
−68,521
−68,978
−69,429
−69,871
−70,304
−70,727
−71,14
−71,54
−71,928
−72,302
−72,662
−73,006
−73,333
−73,644
−73,937
−74,21
−74,464
−74,697
−74,908
−75,096
−75,26
−75,399
−75,513
−75,6
−75,66
−75,693
−75,697
−75,674
−75,623
−75,544
−75,439
−75,307
−75,15
−74,968
−74,762
−74,534
−74,284
−74,013
−73,724
−73,416
−73,091
−72,75
−72,395
−72,027
−71,647
−71,256
−70,856
−70,449
−70,035
−69,617
−69,197
−68,776
−68,358
−67,943
−67,535
−67,136
−66,749
−66,374
−66,016
−65,675
−65,354
−65,054
−64,777
−64,525
−64,299
−64,1
−63,928
−63,785
−63,671
−63,585
−63,529
−63,502
−63,504
−63,535
−63,594
−63,681
−63,796
−63,937
−64,105
−64,297
−64,513
−64,752
−65,011
−65,289
−65,583
−65,892
−66,212
−66,542
−66,878
−67,218
−67,558
−67,896
−68,228
−68,552
−68,866
−69,166
−69,45
−69,716
−69,961
−70,186
−70,388
−70,566
−70,72
−70,849
−70,954
−71,034
−71,09
−71,122
−71,13
−71,116
−71,08
−71,025
−70,95
−70,859
−70,753
−70,633
−70,504
−70,366
−70,223
−70,077
−69,932
−69,79
−69,655
−69,53
−69,418
−69,322
−69,244
−69,189
−69,157
−69,151
−69,172
−69,222
−69,3
−69,407
−69,542
−69,705
−69,894
−70,106
−70,341
−70,594
−70,863
−71,144
−71,434
−71,728
−72,021
−72,31
−72,589
−72,852
−73,095
−73,312
−73,497
−73,644
−73,748
−73,802
−73,799
−73,735
−73,603
−73,397
−73,113
−72,744
−72,288
−71,739
−71,094
−70,352
−69,509
−68,564
−67,517
−66,369
−65,12
−63,773
−62,33
−60,795
−59,173
−57,468
−55,687
−53,835
−51,921
−49,95
−47,933
−45,876
−43,791
−41,686
−39,572
−37,459
−35,359
−33,285
−31,248
−29,261
−27,335
−25,484
−23,719
−22,052
−20,491
−19,046
−17,724
−16,535
−15,485
−14,583
−13,833
−13,242
−12,815
−12,555
−12,467
−12,549
−12,795
−13,202
−13,763
−14,477
−15,344
−16,361
−17,519
−18,814
−20,237
−21,777
−23,421
−25,141
−26,9
−28,667
−30,411
−32,109
−33,748
−35,304
−36,754
−38,078
−39,246
−40,242
−41,058
−41,675
−42,077
−42,269
−42,268
−42,131
−41,937
−41,748
−41,616
−41,576
−41,657
−41,913
−42,393
−43,144
−44,218
−45,622
−47,395
−49,621
−52,28
−55,269
−58,372
−61,191
−63,353
−64,575
−64,499
−62,874
−59,723
−55,208
−49,857
−44,503
−39,814
−36,436
−34,996
−35,594
−37,786
−40,805
−43,316
−43,624
−39,97
−30,35
−12,939
12,395
43,916
79,756
118,731
162,122
212,411
268,41
323,709
366,737
385,692
374,942
337,014
281,722
219,839
158,213
98,74
39,266
−21,625
−82,292
−138,571
−185,275
−219,291
−240,003
−248,272
−245,657
−233,183
−212,419
−186,182
−157,569
−129,604
−104,395
−82,766
−65,329
−52,901
−45,459
−42,144
−41,583
−41,874
−41,805
−41,039
−39,187
−35,792
−30,809
−24,475
−17,478
−10,959
−5,544
−1,342
1,55
3,14
3,499
2,709
1,142
−0,618
−2,222
−3,52
−4,435
−4,99
−5,127
−4,734
−3,795
−2,364
−0,496
1,757
4,374
7,351
10,631
14,116
17,686
21,235
24,703
28,061
31,287
34,358
37,245
39,916
42,364
44,591
46,596
48,381
49,942
51,285
52,438
53,446
54,354
55,199
56,002
56,775
57,537
58,304
59,093
59,916
60,784
61,717
62,751
63,922
65,256
66,77
68,463
70,338
72,394
74,635
77,062
79,663
82,426
85,347
88,432
91,681
95,079
98,587
102,145
105,693
109,195
112,629
115,978
119,231
122,386
125,457
128,485
131,527
134,63
137,822
141,108
144,506
148,066
151,861
155,988
160,536
165,572
171,163
177,378
184,267
191,845
200,085
208,903
218,196
227,877
237,875
248,135
258,579
269,096
279,55
289,796
299,683
309,061
317,756
325,567
332,324
337,911
342,261
345,367
347,243
347,889
347,305
345,502
342,506
338,372
333,169
326,96
319,835
311,904
303,314
294,255
284,889
275,332
265,673
255,96
246,233
236,544
226,928
217,403
207,987
198,689
189,519
180,501
171,638
162,914
154,287
145,69
137,075
128,423
119,721
110,978
102,203
93,407
84,612
75,859
67,181
58,61
50,168
41,872
33,743
25,815
18,123
10,712
3,615
−3,146
−9,552
−15,587
−21,242
−26,512
−31,399
−35,916
−40,07
−43,87
−47,322
−50,431
−53,206
−55,658
−57,8
−59,643
−61,201
−62,485
−63,51
−64,289
−64,835
−65,162
−65,281
−65,203
−64,942
−64,51
−63,921
−63,189
−62,329
−61,355
−60,28
−59,119
−57,885
−56,592
−55,253
−53,877
−52,477
−51,063
−49,645
−48,231
−46,829
−45,447
−44,093
−42,771
−41,488
−40,249
−39,059
−37,92
−36,838
−35,815
−34,853
−33,955
−33,121
−32,354
−31,654
−31,022
−30,457
−29,959
−29,527
−29,159
−28,855
−28,612
−28,428
−28,3
−28,225
−28,2
−28,222
−28,289
−28,397
−28,543
−28,724
−28,937
−29,179
−29,447
−29,738
−30,049
−30,379
−30,724
−31,083
−31,454
−31,834
−32,222
−32,616
−33,015
−33,415
−33,816
−34,216
−34,612
−35,004
−35,391
−35,77
−36,141
−36,502
−36,853
−37,193
−37,521
−37,836
−38,138
−38,426
−38,701
−38,962
−39,209
−39,442
−39,662
−39,87
−40,064
−40,245
−40,414
−40,57
−40,713
−40,843
−40,959
−41,061
−41,148
−41,222
−41,281
−41,326
−41,357
−41,373
−41,374
−41,361
−41,334
−41,293
−41,239
−41,171
−41,091
−40,999
−40,897
−40,784
−40,662
−40,531
−40,391
−40,244
−40,09
−39,929
−39,761
−39,586
−39,405
−39,219
−39,028
−38,833
−38,635
−38,434
−38,231
−38,028
−37,824
−37,621
−37,42
−37,222
−37,027
−36,837
−36,653
−36,475
−36,305
−36,142
−35,987
−35,841
−35,704
−35,574
−35,452
−35,338
−35,232
−35,132
−35,039
−34,952
−34,872
−34,798
−34,73
−34,668
−34,612
−34,562
−34,517
−34,477
−34,441
−34,41
−34,384
−34,361
−34,342
−34,326
−34,313
−34,302
−34,292
−34,283
−34,273
−34,262
−34,249
−34,234
−34,216
−34,194
−34,17
−34,142
−34,11
−34,076
−34,038
−33,997
−33,953
−33,905
−33,854
−33,799
−33,741
−33,678
−33,611
−33,54
−33,464
−33,384
−33,298
−33,206
−33,109
−33,005
−32,894
−32,777
−32,654
−32,523
−32,387
−32,246
−32,1
−31,951
−31,798
−31,643
−31,486
−31,329
−31,171
−31,014
−30,859
−30,705
−30,554
−30,408
−30,266
−30,131
−30,003
−29,884
−29,774
−29,675
−29,589
−29,515
−29,457
−29,415
−29,39
−29,384
−29,399
−29,436
−29,495
−29,578
−29,686
−29,818
−29,976
−30,158
−30,365
−30,596
−30,85
−31,128
−31,428
−31,749
−32,09
−32,451
−32,83
−33,226
−33,637
−34,062
−34,5
−34,949
−35,406
−35,871
−36,342
−36,816
−37,293
−37,77
−38,246
−38,719
−39,188
−39,649
−40,102
−40,546
−40,978
−41,397
−41,803
−42,194
−42,571
−42,933
−43,28
−43,613
−43,931
−44,235
−44,526
−44,804
−45,069
−45,323
−45,566
−45,799
−46,023
−46,238
−46,446
−46,647
−46,843
−47,034
−47,22
−47,403
−47,584
−47,762
−47,938
−48,113
−48,288
−48,464
−48,64
−48,819
−49
−49,183
−49,369
−49,559
−49,751
−49,945
−50,141
−50,339
−50,538
−50,738
−50,938
−51,137
−51,336
−51,534
−51,731
−51,926
−52,119
−52,31
−52,498
−52,683
−52,866
−53,046
−53,223
−53,398
−53,57
−53,741
−53,909
−54,074
−54,237
−54,395
−54,55
−54,698
−54,84
−54,974
−55,099
−55,216
−55,322
−55,417
−55,499
−55,568
−55,622
−55,66
−55,678
−55,674
−55,645
−55,589
−55,504
−55,387
−55,235
−55,046
−54,817
−54,545
−54,231
−53,869
−53,454
−52,983
−52,449
−51,854
−51,2
−50,488
−49,715
−48,886
−47,999
−47,06
−46,076
−45,042
−43,955
−42,811
−41,606
−40,345
−39,035
−37,68
−36,289
−34,858
−33,381
−31,865
−30,314
−28,726
−27,103
−25,438
−23,722
−21,976
−20,223
−18,479
−16,77
−15,1
−13,474
−11,905
−10,404
−8,987
−7,673
−6,465
−5,367
−4,4
−3,576
−2,92
−2,459
−2,177
−2,058
−2,096
−2,278
−2,606
−3,084
−3,696
−4,431
−5,283
−6,244
−7,318
−8,512
−9,802
−11,175
−12,609
−14,076
−15,579
−17,112
−18,647
−20,167
−21,647
−23,066
−24,423
−25,711
−26,905
−27,987
−28,924
−29,693
−30,298
−30,734
−30,998
−31,105
−31,073
−30,946
−30,808
−30,719
−30,73
−30,878
−31,181
−31,689
−32,462
−33,557
−35,039
−36,92
−39,22
−42,021
−45,318
−49,008
−52,904
−56,619
−59,768
−62,171
−63,564
−63,603
−62,252
−59,572
−55,882
−52,031
−48,649
−45,918
−44,217
−44,049
−45,316
−47,652
−50,308
−50,764
−47,027
−38,942
−25,151
−6,092
16,96
46,048
80,456
119,978
166,301
217,05
271,142
324,718
368,641
394,332
392,96
361,738
306,837
238,303
165,892
93,189
17,588
−63,762
−147,725
−223,232
−277,413
−302,418
−299,769
−279,847
−253,216
−226,288
−200,887
−174,182
−144,489
−112,82
−81,135
−52,804
−30,381
−14,285
−3,972
1,58
3,511
2,633
−0,437
−4,57
−8,183
−10,34
−10,709
−9,262
−6,399
−2,462
2,377
7,538
12,102
15,526
17,59
18,312
18,041
17,053
15,492
13,653
11,941
10,639
9,937
9,902
10,452
11,528
13,114
15,161
17,61
20,397
23,443
26,677
30,035
33,448
36,855
40,206
43,449
46,541
49,448
52,151
54,648
56,946
59,048
60,958
62,681
64,229
65,628
66,907
68,099
69,241
70,36
71,482
72,633
73,831
75,093
76,431
77,851
79,358
80,958
82,662
84,48
86,423
88,5
90,717
93,084
95,605
98,29
101,144
104,175
107,391
110,799
114,407
118,223
122,253
126,504
130,977
135,674
140,595
145,737
151,095
156,664
162,436
168,403
174,553
180,875
187,357
193,984
200,741
207,609
214,571
221,606
228,694
235,811
242,935
250,04
257,102
264,092
270,985
277,751
284,364
290,794
297,011
302,988
308,694
314,101
319,18
323,905
328,249
332,186
335,691
338,742
341,318
343,399
344,967
346,007
346,504
346,447
345,827
344,634
342,866
340,517
337,589
334,084
330,005
325,36
320,158
314,412
308,135
301,346
294,061
286,304
278,097
269,465
260,435
251,037
241,301
231,259
220,942
210,387
199,626
188,696
177,632
166,471
155,247
143,996
132,755
121,556
110,434
99,422
88,552
77,853
67,355
57,086
47,07
37,333
27,896
18,779
10
1,576
−6,48
−14,156
−21,442
−28,331
−34,817
−40,897
−46,57
−51,837
−56,7
−61,164
−65,235
−68,921
−72,232
−75,178
−77,773
−80,028
−81,96
−83,583
−84,913
−85,968
−86,763
−87,317
−87,647
−87,77
−87,706
−87,471
−87,082
−86,556
−85,91
−85,159
−84,319
−83,404
−82,429
−81,405
−80,346
−79,264
−78,167
−77,068
−75,974
−74,893
−73,832
−72,798
−71,796
−70,83
−69,904
−69,02
−68,181
−67,388
−66,642
−65,942
−65,29
−64,684
−64,124
−63,607
−63,133
−62,699
−62,304
−61,945
−61,621
−61,329
−61,068
−60,834
−60,625
−60,441
−60,277
−60,133
−60,007
−59,895
−59,797
−59,71
−59,634
−59,566
−59,505
−59,45
−59,4
−59,356
−59,315
−59,278
−59,244
−59,214
−59,187
−59,163
−59,142
−59,125
−59,11
−59,098
−59,088
−59,081
−59,076
−59,073
−59,07
−59,068
−59,066
−59,063
−59,059
−59,054
−59,046
−59,036
−59,023
−59,007
−58,989
−58,968
−58,944
−58,917
−58,888
−58,856
−58,821
−58,784
−58,744
−58,702
−58,656
−58,607
−58,556
−58,5
−58,442
−58,38
−58,315
−58,247
−58,177
−58,105
−58,032
−57,958
−57,885
−57,813
−57,744
−57,677
−57,614
−57,555
−57,501
−57,452
−57,409
−57,37
−57,337
−57,308
−57,284
−57,262
−57,244
−57,226
−57,21
−57,194
−57,176
−57,157
−57,134
−57,108
−57,078
−57,043
−57,002
−56,954
−56,9
−56,836
−56,763
−56,68
−56,584
−56,476
−56,353
−56,214
−56,059
−55,887
−55,699
−55,492
−55,265
−55,017
−54,747
−54,453
−54,14
−53,807
−53,452
−53,086
−52,717
−52,347
−51,987
−51,64
−51,29
−50,936
−50,581
−50,186
−49,733
−49,231
−48,66
−48,018
−47,368
−46,74
−46,135
−45,706
−45,587
−45,636
−45,847
−46,316
−46,69
−47,452
−49,283
−51,224
−52,93
−52,805
−48,021
−39,503
−29,365
−21,488
−21,759
−31,668
−48,086
−64,808
−74,404
−72,509
−61,213
−46,97
−35,658
−31,628
−34,492
−39,923
−45,131
−48,239
−48,99
−49,103
−49,235
−49,369
−49,558
−49,499
−49,141
−48,732
−48,342
−47,946
−47,574
−47,226
−46,885
−46,547
−46,191
−45,773
−45,28
−44,723
−44,105
−43,432
−42,719
−41,975
−41,211
−40,446
−39,696
−38,977
−38,303
−37,68
−37,104
−36,569
−36,075
−35,63
−35,254
−34,968
−34,787
−34,714
−34,737
−34,853
−35,054
−35,323
−35,637
−35,961
−36,256
−36,513
−36,748
−36,977
−37,228
−37,524
−37,856
−38,215
−38,64
−39,179
−39,882
−40,807
−41,977
−43,395
−45,135
−47,304
−49,841
−52,651
−55,849
−59,452
−63,426
−68,044
−72,553
−76,208
−80,03
−84,253
−90,558
−100,965
−112,794
