Nimi,Mikko Happonen
Syntymäaika,"20.5.2002"
Tallennuspäivä,2024-11-01 11:19:24 +0200
Luokitus,Sinusrytmi
Oireet,
Ohjelmistoversio,1.90
Laite,"Watch7,8"
Näytetaajuus,512 hertsiä


Kytkentä,I-kytkentä
Yksikkö,µV

−113,446
−141,22
−163,972
−170,601
−158,899
−133,183
−101,238
−72,212
−49,251
−30,899
−16,262
−4,266
3,618
3,887
−3,172
−15,967
−32,064
−47,838
−62,685
−76,633
−89,032
−99,611
−107,125
−110,765
−110,682
−107,178
−100,761
−92,065
−82,546
−73,93
−66,568
−58,784
−47,034
−27,738
−1,979
22,953
37,769
33,668
8,557
−27,229
−59,095
−72,837
−58,771
−24,431
13,665
40,382
41,773
21,621
−3,303
−19,842
−15,208
9,852
41,777
71,495
90,77
98,076
99,903
98,582
95,694
91,219
82,327
70,784
58,443
46,639
37,93
30,587
24,575
22,865
26,479
37,189
51,706
59,297
50,281
18,792
−32,531
−89,433
−133,881
−151,323
−135,227
−90,371
−30,529
28,706
74,496
99,011
102,536
89,807
66,768
40,656
17,649
3,218
2,589
19,335
49,994
84,915
113,036
121,898
111,152
93,288
81,819
92,248
127,173
171,102
205,642
212,495
183,244
128,754
68,088
17,777
−11,356
−22,603
−30,054
−41,293
−57,419
−71,566
−67,829
−40,882
1,5
44,849
69,075
64,803
41,003
15,271
6,486
25,754
66,003
109,457
140,504
148,582
137,114
119,432
104,176
94,832
86,735
71,563
50,149
31,95
29,692
51,954
93,803
138,855
170,561
179,491
168,735
151,482
139,175
137,782
146,431
157,924
166,737
171,335
172,502
173,76
178,6
185,89
192,109
193,72
186,361
170,45
150,587
130,184
113,221
101,333
92,626
85,694
78,581
69,829
60,579
54,389
56,568
69,896
91,444
111,091
115,014
95,676
56,855
13,805
−13,629
−13,416
12,979
52,249
88,371
112,312
125,1
135,188
149,469
167,649
183,41
187,923
176,756
153,202
124,978
99,96
82,438
71,605
64,121
57,666
51,671
46,766
43,878
42,71
42,319
42,211
41,997
41,311
39,862
37,194
33,573
30,475
28,844
28,175
26,075
18,272
2,033
−20,705
−43,777
−58,306
−56,602
−38,535
−10,898
15,703
29,499
25,761
6,217
−23,823
−55,001
−81,266
−98,777
−104,506
−100,9
−90,639
−77,694
−68,896
−66,635
−71,83
−84,251
−99,166
−113,986
−127,66
−138,779
−148,917
−158,788
−167,309
−174,321
−179,571
−182,91
−184,879
−184,103
−177,041
−162,178
−141,022
−119,717
−108,487
−113,787
−136,302
−170,759
−206,956
−237,74
−260,528
−275,807
−286,845
−295,182
−299,899
−300,479
−296,598
−288,151
−276,756
−263,147
−247,446
−232,69
−221,425
−216,602
−220,922
−231,98
−246,418
−260,19
−270,143
−277,404
−284,227
−294,467
−309,069
−324,277
−334,125
−328,615
−303,288
−262,942
−218,527
−188,355
−185,88
−212,514
−259,218
−307,901
−341,39
−349,727
−333,157
−299,409
−257,084
−215,298
−179,532
−152,764
−140,327
−145,764
−169,604
−210,157
−260,032
−308,378
−346,972
−369,1
−371,474
−356,195
−324,754
−278,694
−217,709
−137,401
−34,854
91,496
236,459
386,556
526,358
637,186
706,145
730,033
709,271
652,221
567,708
459,826
334,804
197,261
54,449
−80,132
−194,886
−280,796
−335,379
−364,728
−377,111
−380,395
−378,421
−370,484
−354,949
−330,829
−299,567
−264,469
−228,832
−195,268
−165,21
−139,238
−117,626
−100,388
−87,464
−78,646
−73,479
−71,427
−71,691
−73,462
−76,103
−79,144
−82,294
−85,264
−87,955
−90,476
−93,11
−96,259
−99,567
−102,337
−104,615
−106,243
−108,355
−112,119
−115,432
−116,904
−114,566
−106,433
−95,684
−84,77
−75,294
−69,757
−66,966
−65,701
−66,017
−66,771
−67,649
−68,804
−69,834
−70,612
−71,082
−70,991
−70,113
−68,538
−66,594
−64,525
−62,387
−60,028
−57,325
−54,339
−51,109
−47,851
−44,259
−39,237
−32,939
−26,331
−20,942
−20,149
−24,73
−31,51
−36,434
−33,574
−19,696
1,076
22,392
37,648
41,866
37,642
31,17
27,144
29,506
37,793
48,24
58,847
68,25
76,193
84,062
92,356
100,989
110,031
119,268
128,594
138,14
147,92
157,857
167,948
178,208
188,609
199,132
209,747
220,384
230,999
241,569
252,042
262,355
272,444
282,239
291,728
300,955
309,917
318,534
326,607
333,893
340,242
345,61
349,932
353,053
354,88
355,496
355,253
354,63
353,81
352,662
351,018
348,631
345,089
340,052
332,724
322,73
311,039
297,629
281,871
262,389
235,936
203,426
169,771
140,239
121,497
114,083
112,145
110,777
104,621
92,412
77,896
62,938
48,782
35,85
22,588
8,698
−5,156
−18,731
−31,598
−43,326
−53,859
−63,204
−71,265
−78,166
−84,316
−89,237
−92,408
−94,563
−95,9
−97,892
−102,362
−107,587
−112,395
−115,014
−112,91
−108,217
−102,704
−97,367
−93,974
−90,74
−86,024
−79,661
−71,167
−61,567
−52,209
−43,889
−37,663
−34,524
−34,446
−36,605
−40,453
−45,713
−53,762
−66,965
−84,94
−104,838
−121,23
−127,368
−120,531
−101,47
−73,665
−43,286
−15,552
4,998
15,081
14,679
6,658
−3,705
−11,398
−14,017
−12,223
−8,908
−6,221
−4,528
−3,16
−0,913
2,579
6,724
10,989
14,959
18,389
21,251
23,471
24,833
25,354
25,344
25,252
25,875
27,462
29,355
31,177
32,751
35,846
44,368
59,856
81,815
105,751
122,119
125,363
112,755
84,658
49,653
14,444
−15,243
−31,18
−32,336
−19,876
4,101
30,068
50,597
62,294
62,564
55,737
48,019
42,351
41,597
45,174
49,975
54,835
58,765
61,319
64,061
67,851
72,161
77,211
81,089
81,05
78,381
74,528
73,248
80,282
94,564
112,171
127,278
131,568
123,13
104,671
80,043
55,881
36,682
23,67
18,338
20,753
29,329
42,817
58,056
69,377
72,529
65,11
47,131
24,959
6,482
−3,297
−1,047
9,799
22,092
31,563
34,819
32,367
28,086
23,863
20,932
19,585
18,542
17,392
16,256
15,082
14,07
13,27
12,499
11,705
10,911
10,094
9,237
8,353
7,449
6,563
5,788
5,125
4,493
3,826
3,036
2,125
1,237
0,408
−0,446
−1,257
−1,871
−2,052
−1,394
0,163
2,272
4,709
7,348
9,933
12,232
13,783
13,801
12,081
9,043
5,104
0,758
−3,53
−7,497
−10,59
−11,912
−11,141
−8,519
−4,461
0,368
5,477
10,679
15,567
19,546
22,334
23,941
24,595
24,778
24,782
24,658
24,522
24,526
24,77
25,305
26,06
26,841
27,554
28,219
28,884
29,614
30,439
31,344
32,331
33,433
34,672
36,054
37,571
39,186
40,862
42,585
44,341
46,103
47,828
49,433
50,813
51,889
52,617
52,977
52,971
52,599
51,856
50,757
49,323
47,588
45,571
43,245
40,567
37,505
34,059
30,285
26,258
21,997
17,502
12,784
7,863
2,787
−2,446
−7,961
−13,859
−20,107
−26,61
−33,196
−39,591
−45,479
−50,419
−53,711
−55,251
−55,721
−55,512
−54,564
−51,367
−43,518
−30,71
−15,767
−3,903
0,475
−3,394
−11,777
−18,871
−21,855
−20,151
−13,528
0,272
28,632
80,038
159,277
265,434
391,958
528,597
664,008
786,239
881,132
935,835
942,57
901,353
821,771
717,351
598,717
471,565
338,33
202,475
73,766
−34,305
−112,315
−157,382
−175,872
−179,602
−176,234
−169,047
−157,29
−137,839
−111,126
−80,285
−48,895
−20,632
2,544
20,275
32,627
40,075
43,475
43,892
42,386
39,857
37,251
35,318
34,637
35,73
38,564
42,693
47,657
52,949
58,017
62,437
65,774
67,577
67,762
66,506
64,06
60,792
57,054
53,123
49,319
45,972
43,28
41,349
40,214
39,835
40,185
41,251
42,995
45,364
48,292
51,706
55,534
59,701
64,126
68,728
73,424
78,148
82,85
87,489
92,041
96,49
100,819
105,014
109,055
112,911
116,568
120,02
123,271
126,347
129,275
132,089
134,831
137,537
140,244
142,993
145,816
148,753
151,849
155,153
158,734
162,671
167,037
171,897
177,299
183,268
189,82
196,957
204,667
212,932
221,719
230,993
240,722
250,864
261,368
272,182
283,236
294,456
305,793
317,181
328,574
339,942
351,249
362,472
373,605
384,631
395,534
406,291
416,861
427,206
437,299
447,091
456,532
465,547
474,018
481,837
488,892
495,049
500,187
504,168
506,837
508,075
507,79
505,9
502,355
497,101
490,068
481,228
470,582
458,173
444,103
428,477
411,407
393,047
373,567
353,165
332,071
310,478
288,551
266,458
244,353
222,415
200,851
179,842
159,535
140,06
121,511
103,977
87,549
72,263
58,122
45,097
33,126
22,165
12,196
3,179
−4,931
−12,205
−18,751
−24,662
−30,017
−34,906
−39,416
−43,639
−47,68
−51,604
−55,438
−59,195
−62,87
−66,464
−69,993
−73,46
−76,854
−80,161
−83,349
−86,395
−89,286
−91,994
−94,485
−96,719
−98,648
−100,249
−101,524
−102,481
−103,137
−103,51
−103,617
−103,481
−103,136
−102,612
−101,939
−101,142
−100,241
−99,266
−98,246
−97,216
−96,212
−95,259
−94,375
−93,572
−92,862
−92,25
−91,742
−91,337
−91,032
−90,824
−90,712
−90,697
−90,779
−90,958
−91,229
−91,588
−92,03
−92,551
−93,145
−93,809
−94,537
−95,324
−96,168
−97,063
−98,008
−98,998
−100,029
−101,096
−102,193
−103,316
−104,459
−105,618
−106,786
−107,96
−109,136
−110,31
−111,478
−112,639
−113,788
−114,925
−116,046
−117,149
−118,233
−119,296
−120,335
−121,351
−122,341
−123,305
−124,243
−125,153
−126,036
−126,893
−127,723
−128,526
−129,303
−130,055
−130,781
−131,484
−132,163
−132,819
−133,454
−134,068
−134,662
−135,237
−135,794
−136,334
−136,857
−137,363
−137,852
−138,326
−138,784
−139,226
−139,653
−140,065
−140,462
−140,844
−141,212
−141,567
−141,908
−142,237
−142,553
−142,857
−143,149
−143,431
−143,701
−143,961
−144,21
−144,45
−144,68
−144,901
−145,112
−145,314
−145,507
−145,692
−145,869
−146,039
−146,202
−146,361
−146,514
−146,665
−146,813
−146,96
−147,107
−147,255
−147,406
−147,561
−147,72
−147,886
−148,058
−148,238
−148,425
−148,621
−148,825
−149,037
−149,258
−149,486
−149,723
−149,967
−150,219
−150,478
−150,745
−151,018
−151,296
−151,58
−151,867
−152,155
−152,443
−152,727
−153,005
−153,273
−153,529
−153,768
−153,987
−154,184
−154,353
−154,493
−154,6
−154,669
−154,698
−154,679
−154,609
−154,482
−154,295
−154,044
−153,723
−153,327
−152,852
−152,296
−151,655
−150,924
−150,096
−149,161
−148,112
−146,95
−145,675
−144,291
−142,805
−141,228
−139,573
−137,864
−136,123
−134,369
−132,619
−130,881
−129,168
−127,498
−125,891
−124,373
−122,961
−121,656
−120,457
−119,36
−118,352
−117,414
−116,508
−115,577
−114,572
−113,455
−112,203
−110,809
−109,264
−107,557
−105,678
−103,618
−101,387
−99,018
−96,549
−94,017
−91,479
−88,993
−86,64
−84,543
−82,799
−81,489
−80,681
−80,403
−80,677
−81,518
−82,924
−84,881
−87,369
−90,317
−93,623
−97,229
−101,096
−105,243
−109,742
−114,605
−119,794
−125,309
−131,181
−137,388
−143,839
−150,25
−156,119
−160,999
−164,606
−166,772
−167,441
−166,608
−164,313
−160,897
−157,039
−153,485
−150,919
−149,585
−149,336
−150,283
−152,512
−156,31
−162,6
−170,89
−179,788
−187,748
−191,11
−188,257
−180,711
−170,188
−161,673
−158,336
−157,312
−154,157
−140,014
−105,503
−46,297
39,898
150,388
278,987
417,701
555,251
679,574
776,838
835,735
849,943
817,921
746,001
642,733
516,638
376,634
230,161
86,772
−41,671
−144,376
−215,426
−255,961
−273,445
−278,105
−276,275
−269,865
−257,89
−237,961
−211,074
−180,729
−150,716
−124,921
−105,205
−91,797
−84,549
−82,541
−84,477
−89,087
−94,951
−100,688
−105,218
−107,603
−107,076
−103,439
−96,979
−88,215
−77,882
−66,781
−55,614
−45,112
−35,985
−28,583
−22,972
−19,071
−16,625
−15,354
−15,004
−15,248
−15,746
−16,316
−16,866
−17,349
−17,765
−18,07
−18,206
−18,145
−17,868
−17,327
−16,46
−15,21
−13,536
−11,44
−8,943
−6,062
−2,814
0,793
4,747
9,025
13,599
18,445
23,548
28,895
34,463
40,21
46,074
52,013
57,993
63,987
69,969
75,893
81,721
87,439
93,048
98,561
103,99
109,338
114,6
119,779
124,879
129,922
134,94
139,961
145,023
150,183
155,512
161,109
167,066
173,436
180,25
187,53
195,292
203,554
212,339
221,656
231,52
241,956
252,974
264,583
276,77
289,48
302,63
316,108
329,792
343,581
357,381
371,089
384,611
397,849
410,701
423,078
434,867
445,917
456,074
465,182
473,101
479,722
484,957
488,735
490,999
491,702
490,812
488,322
484,23
478,526
471,206
462,258
451,709
439,634
426,134
411,327
395,331
378,274
360,294
341,548
322,203
302,407
282,29
261,972
241,572
221,232
201,116
181,397
162,226
143,725
126,003
109,159
93,29
78,463
64,708
52,019
40,366
29,731
20,106
11,48
3,828
−2,902
−8,789
−13,929
−18,409
−22,32
−25,763
−28,843
−31,676
−34,35
−36,916
−39,402
−41,817
−44,175
−46,498
−48,802
−51,089
−53,354
−55,577
−57,738
−59,82
−61,797
−63,631
−65,277
−66,684
−67,817
−68,668
−69,241
−69,55
−69,609
−69,432
−69,042
−68,468
−67,738
−66,881
−65,92
−64,875
−63,771
−62,64
−61,514
−60,428
−59,409
−58,473
−57,632
−56,893
−56,261
−55,738
−55,32
−55,001
−54,772
−54,63
−54,572
−54,597
−54,699
−54,874
−55,115
−55,414
−55,766
−56,166
−56,607
−57,084
−57,592
−58,128
−58,686
−59,266
−59,863
−60,474
−61,095
−61,722
−62,351
−62,977
−63,598
−64,21
−64,808
−65,391
−65,956
−66,502
−67,027
−67,531
−68,012
−68,471
−68,908
−69,322
−69,714
−70,084
−70,431
−70,757
−71,061
−71,344
−71,607
−71,849
−72,071
−72,274
−72,458
−72,624
−72,773
−72,904
−73,018
−73,116
−73,198
−73,265
−73,317
−73,356
−73,381
−73,395
−73,398
−73,391
−73,376
−73,354
−73,325
−73,29
−73,251
−73,208
−73,161
−73,113
−73,063
−73,013
−72,963
−72,915
−72,869
−72,827
−72,789
−72,757
−72,732
−72,714
−72,704
−72,704
−72,713
−72,734
−72,767
−72,812
−72,87
−72,942
−73,028
−73,128
−73,243
−73,371
−73,513
−73,667
−73,834
−74,011
−74,199
−74,397
−74,603
−74,816
−75,036
−75,26
−75,489
−75,721
−75,954
−76,188
−76,421
−76,652
−76,881
−77,105
−77,325
−77,54
−77,748
−77,95
−78,144
−78,329
−78,506
−78,674
−78,832
−78,981
−79,12
−79,25
−79,37
−79,482
−79,585
−79,681
−79,77
−79,853
−79,93
−80,003
−80,073
−80,14
−80,204
−80,268
−80,333
−80,398
−80,465
−80,536
−80,61
−80,69
−80,774
−80,865
−80,963
−81,068
−81,182
−81,304
−81,435
−81,576
−81,727
−81,888
−82,06
−82,242
−82,434
−82,637
−82,85
−83,072
−83,304
−83,545
−83,796
−84,055
−84,324
−84,602
−84,889
−85,186
−85,492
−85,808
−86,133
−86,467
−86,812
−87,165
−87,528
−87,9
−88,282
−88,673
−89,072
−89,48
−89,895
−90,318
−90,747
−91,182
−91,622
−92,066
−92,515
−92,967
−93,422
−93,879
−94,338
−94,798
−95,257
−95,715
−96,168
−96,615
−97,052
−97,476
−97,884
−98,273
−98,639
−98,979
−99,29
−99,569
−99,815
−100,025
−100,196
−100,324
−100,407
−100,44
−100,421
−100,347
−100,214
−100,018
−99,755
−99,424
−99,022
−98,548
−97,998
−97,366
−96,646
−95,835
−94,934
−93,948
−92,881
−91,745
−90,551
−89,319
−88,077
−86,848
−85,654
−84,514
−83,439
−82,447
−81,557
−80,787
−80,153
−79,664
−79,316
−79,102
−79,016
−79,034
−79,127
−79,254
−79,359
−79,395
−79,33
−79,138
−78,804
−78,316
−77,662
−76,844
−75,873
−74,775
−73,592
−72,371
−71,16
−70,024
−69,029
−68,255
−67,792
−67,717
−68,09
−68,956
−70,332
−72,223
−74,619
−77,489
−80,798
−84,471
−88,39
−92,471
−96,656
−100,94
−105,398
−110,074
−114,945
−120,031
−125,38
−130,991
−136,824
−142,628
−147,929
−152,338
−155,578
−157,463
−157,913
−156,814
−154,092
−150,061
−145,352
−140,587
−136,381
−133,067
−130,786
−129,996
−131,194
−134,436
−139,662
−146,7
−155,066
−164,732
−174,988
−183,355
−187,365
−184,815
−175,295
−161,357
−144,864
−125,14
−97,648
−54,643
10,765
102,054
217,65
352,315
497,138
639,67
764,853
855,347
898,043
887,582
828,342
732,632
612,487
477,779
334,244
187,149
46,905
−74,506
−165,891
−223,003
−251,761
−262,221
−263,69
−259,025
−245,02
−218,499
−180,155
−137,573
−100,805
−76,488
−66,055
−64,635
−66,136
−67,205
−67,291
−68,506
−72,371
−78,574
−85,54
−91,031
−93,787
−93,47
−90,324
−85,088
−78,352
−70,608
−62,559
−54,783
−47,748
−41,929
−37,443
−34,201
−32,093
−30,88
−30,294
−30,114
−30,082
−29,961
−29,66
−29,149
−28,425
−27,524
−26,429
−25,125
−23,635
−21,969
−20,125
−18,081
−15,782
−13,2
−10,335
−7,195
−3,792
−0,125
3,826
8,065
12,586
17,382
22,434
27,741
33,316
39,151
45,225
51,505
57,936
64,474
71,091
77,741
84,371
90,932
97,38
103,697
109,891
115,966
121,929
127,782
133,52
139,151
144,691
150,162
155,595
161,032
166,52
172,139
177,987
184,158
190,734
197,766
205,276
213,284
221,806
230,845
240,412
250,508
261,136
272,318
284,065
296,37
309,208
322,509
336,171
350,086
364,14
378,232
392,273
406,165
419,812
433,13
446,033
458,43
470,215
481,235
491,333
500,358
508,171
514,664
519,752
523,359
525,42
525,888
524,73
521,934
517,494
511,396
503,625
494,173
483,062
470,37
456,205
440,685
423,936
406,094
387,306
367,738
347,561
326,931
305,981
284,836
263,621
242,483
221,59
201,122
181,23
162,042
143,666
126,2
109,74
94,346
80,045
66,828
54,663
43,53
33,42
24,323
16,213
9,04
2,724
−2,829
−7,705
−11,997
−15,802
−19,221
−22,369
−25,328
−28,147
−30,85
−33,442
−35,935
−38,351
−40,703
−42,994
−45,219
−47,36
−49,394
−51,309
−53,078
−54,665
−56,029
−57,118
−57,904
−58,38
−58,553
−58,44
−58,06
−57,429
−56,572
−55,521
−54,308
−52,963
−51,513
−49,98
−48,393
−46,784
−45,19
−43,649
−42,189
−40,828
−39,581
−38,456
−37,461
−36,599
−35,869
−35,263
−34,776
−34,406
−34,151
−34,008
−33,974
−34,043
−34,207
−34,461
−34,795
−35,205
−35,684
−36,224
−36,819
−37,463
−38,152
−38,88
−39,644
−40,436
−41,25
−42,08
−42,919
−43,762
−44,602
−45,433
−46,25
−47,049
−47,824
−48,572
−49,291
−49,978
−50,631
−51,248
−51,827
−52,369
−52,871
−53,335
−53,759
−54,144
−54,49
−54,799
−55,07
−55,306
−55,506
−55,673
−55,807
−55,911
−55,986
−56,034
−56,056
−56,055
−56,034
−55,994
−55,937
−55,868
−55,787
−55,698
−55,604
−55,506
−55,408
−55,312
−55,219
−55,133
−55,055
−54,987
−54,93
−54,886
−54,857
−54,843
−54,846
−54,866
−54,906
−54,964
−55,043
−55,142
−55,262
−55,404
−55,568
−55,755
−55,963
−56,193
−56,446
−56,719
−57,013
−57,326
−57,658
−58,008
−58,373
−58,753
−59,146
−59,551
−59,965
−60,386
−60,812
−61,243
−61,674
−62,106
−62,536
−62,962
−63,382
−63,796
−64,202
−64,599
−64,985
−65,359
−65,721
−66,069
−66,403
−66,722
−67,026
−67,314
−67,587
−67,845
−68,087
−68,315
−68,53
−68,732
−68,923
−69,103
−69,276
−69,441
−69,601
−69,759
−69,916
−70,074
−70,236
−70,403
−70,579
−70,765
−70,964
−71,176
−71,405
−71,652
−71,918
−72,205
−72,514
−72,847
−73,204
−73,587
−73,997
−74,434
−74,898
−75,389
−75,908
−76,455
−77,028
−77,627
−78,251
−78,899
−79,57
−80,261
−80,972
−81,7
−82,443
−83,199
−83,966
−84,741
−85,522
−86,307
−87,093
−87,878
−88,66
−89,437
−90,206
−90,967
−91,717
−92,454
−93,177
−93,885
−94,576
−95,248
−95,901
−96,533
−97,143
−97,731
−98,296
−98,837
−99,354
−99,847
−100,315
−100,76
−101,18
−101,577
−101,95
−102,301
−102,63
−102,938
−103,226
−103,495
−103,745
−103,976
−104,191
−104,389
−104,57
−104,736
−104,887
−105,023
−105,144
−105,251
−105,344
−105,424
−105,49
−105,544
−105,585
−105,615
−105,634
−105,643
−105,643
−105,633
−105,617
−105,593
−105,564
−105,529
−105,491
−105,45
−105,407
−105,363
−105,319
−105,276
−105,235
−105,198
−105,166
−105,142
−105,126
−105,12
−105,127
−105,148
−105,185
−105,241
−105,318
−105,416
−105,538
−105,686
−105,861
−106,064
−106,296
−106,557
−106,848
−107,169
−107,519
−107,897
−108,304
−108,737
−109,194
−109,675
−110,177
−110,698
−111,236
−111,786
−112,346
−112,913
−113,481
−114,047
−114,606
−115,151
−115,675
−116,174
−116,641
−117,069
−117,452
−117,783
−118,058
−118,271
−118,417
−118,492
−118,489
−118,402
−118,228
−117,96
−117,595
−117,126
−116,549
−115,859
−115,054
−114,133
−113,094
−111,932
−110,643
−109,22
−107,663
−105,974
−104,16
−102,228
−100,191
−98,065
−95,874
−93,648
−91,415
−89,198
−87,016
−84,885
−82,827
−80,869
−79,041
−77,364
−75,856
−74,519
−73,354
−72,359
−71,517
−70,801
−70,165
−69,551
−68,914
−68,228
−67,479
−66,659
−65,75
−64,72
−63,539
−62,202
−60,723
−59,137
−57,494
−55,826
−54,176
−52,626
−51,29
−50,269
−49,626
−49,337
−49,294
−49,451
−49,868
−50,622
−51,795
−53,476
−55,71
−58,645
−62,617
−67,796
−74,132
−81,49
−89,539
−97,914
−106,417
−114,734
−122,286
−128,748
−133,93
−137,595
−139,877
−140,974
−140,827
−139,592
−137,632
−134,947
−131,575
−127,913
−124,043
−119,941
−115,943
−112,167
−108,536
−106,128
−106,044
−107,987
−112,279
−118,018
−122,97
−127,328
−130,634
−132,398
−134,587
−137,253
−139,291
−138,345
−126,697
−95,46
−38,358
47,502
157,003
280,987
411,862
541,912
665,717
775,802
858,759
902,42
898,574
847,664
760,65
650,274
525,645
391,24
249,021
104,22
−30,481
−139,917
−214,409
−252,445
−262,843
−258,823
−248,51
−235,174
−217,728
−193,173
−162,718
−130,12
−99,185
−73,895
−56,007
−45,351
−41,455
−43,081
−48,447
−55,952
−64,212
−71,793
−77,632
−80,983
−81,159
−78,101
−72,343
−64,546
−55,452
−45,867
−36,428
−27,738
−20,429
−14,758
−10,696
−8,1
−6,674
−6,116
−6,179
−6,576
−7,025
−7,379
−7,575
−7,584
−7,415
−7,052
−6,472
−5,663
−4,616
−3,298
−1,655
0,345
2,712
5,431
8,473
11,812
15,442
19,358
23,549
28,008
32,719
37,672
42,863
48,28
53,893
59,669
65,558
71,533
77,591
83,727
89,937
96,214
102,542
108,905
115,3
121,714
128,128
134,535
140,924
147,298
153,669
160,059
166,492
172,988
179,549
186,18
192,898
199,727
206,703
213,864
221,232
228,837
236,713
244,879
253,35
262,134
271,223
280,604
290,264
300,201
310,428
320,961
331,798
342,919
354,279
365,827
377,527
389,329
401,169
412,985
424,709
436,278
447,645
458,755
469,533
479,872
489,635
498,671
506,84
514,02
520,093
524,927
528,38
530,342
530,736
529,516
526,63
521,977
515,503
507,222
497,185
485,507
472,275
457,483
441,214
423,665
404,941
385,114
364,262
342,34
319,52
296,258
272,877
249,605
226,8
204,791
183,952
164,795
147,457
131,682
117,328
104,295
92,423
81,613
71,641
62,129
52,999
44,452
36,587
29,452
23,026
17,176
11,861
7,139
2,936
−0,943
−4,648
−8,299
−11,943
−15,528
−19,037
−22,492
−25,897
−29,235
−32,479
−35,584
−38,516
−41,268
−43,825
−46,163
−48,244
−50,016
−51,45
−52,538
−53,291
−53,731
−53,88
−53,759
−53,394
−52,821
−52,073
−51,183
−50,181
−49,09
−47,938
−46,754
−45,574
−44,436
−43,367
−42,389
−41,515
−40,755
−40,115
−39,602
−39,214
−38,946
−38,794
−38,755
−38,826
−39,006
−39,291
−39,675
−40,151
−40,711
−41,346
−42,05
−42,815
−43,634
−44,498
−45,401
−46,337
−47,3
−48,283
−49,279
−50,281
−51,281
−52,272
−53,247
−54,201
−55,125
−56,015
−56,865
−57,672
−58,432
−59,142
−59,798
−60,4
−60,945
−61,434
−61,866
−62,241
−62,559
−62,823
−63,034
−63,194
−63,306
−63,373
−63,398
−63,383
−63,333
−63,251
−63,141
−63,005
−62,849
−62,674
−62,486
−62,287
−62,082
−61,874
−61,667
−61,463
−61,266
−61,079
−60,904
−60,744
−60,601
−60,477
−60,373
−60,291
−60,232
−60,197
−60,186
−60,2
−60,239
−60,302
−60,388
−60,498
−60,628
−60,78
−60,951
−61,14
−61,346
−61,568
−61,805
−62,054
−62,315
−62,585
−62,865
−63,151
−63,443
−63,739
−64,038
−64,338
−64,639
−64,938
−65,235
−65,529
−65,818
−66,101
−66,378
−66,646
−66,906
−67,157
−67,399
−67,631
−67,853
−68,065
−68,267
−68,461
−68,645
−68,821
−68,989
−69,15
−69,303
−69,45
−69,591
−69,727
−69,858
−69,984
−70,108
−70,228
−70,347
−70,463
−70,579
−70,693
−70,808
−70,922
−71,038
−71,155
−71,275
−71,398
−71,524
−71,654
−71,788
−71,928
−72,072
−72,222
−72,377
−72,537
−72,702
−72,873
−73,048
−73,228
−73,413
−73,602
−73,796
−73,993
−74,194
−74,398
−74,605
−74,815
−75,027
−75,242
−75,459
−75,678
−75,899
−76,121
−76,346
−76,572
−76,799
−77,027
−77,257
−77,487
−77,717
−77,948
−78,179
−78,41
−78,641
−78,872
−79,103
−79,334
−79,565
−79,795
−80,026
−80,256
−80,485
−80,714
−80,941
−81,168
−81,394
−81,619
−81,842
−82,063
−82,283
−82,5
−82,713
−82,924
−83,13
−83,332
−83,53
−83,722
−83,909
−84,091
−84,266
−84,434
−84,595
−84,749
−84,895
−85,032
−85,161
−85,281
−85,392
−85,494
−85,587
−85,671
−85,746
−85,814
−85,874
−85,927
−85,973
−86,014
−86,05
−86,083
−86,112
−86,141
−86,169
−86,198
−86,229
−86,264
−86,303
−86,348
−86,4
−86,46
−86,529
−86,607
−86,698
−86,8
−86,917
−87,048
−87,195
−87,36
−87,542
−87,744
−87,964
−88,205
−88,465
−88,745
−89,046
−89,365
−89,704
−90,06
−90,434
−90,823
−91,226
−91,64
−92,064
−92,496
−92,933
−93,374
−93,814
−94,253
−94,688
−95,117
−95,537
−95,945
−96,339
−96,715
−97,071
−97,402
−97,705
−97,976
−98,21
−98,403
−98,552
−98,652
−98,7
−98,692
−98,625
−98,498
−98,308
−98,053
−97,73
−97,335
−96,868
−96,325
−95,706
−95,009
−94,233
−93,374
−92,432
−91,409
−90,303
−89,114
−87,839
−86,471
−85,01
−83,46
−81,827
−80,12
−78,351
−76,533
−74,688
−72,842
−71,02
−69,246
−67,538
−65,906
−64,368
−62,944
−61,656
−60,53
−59,576
−58,795
−58,186
−57,744
−57,452
−57,287
−57,206
−57,148
−57,068
−56,929
−56,711
−56,406
−56,002
−55,482
−54,831
−54,045
−53,134
−52,126
−51,045
−49,916
−48,78
−47,695
−46,744
−46,03
−45,631
−45,602
−45,986
−46,796
−48,04
−49,728
−51,848
−54,374
−57,283
−60,517
−64,007
−67,732
−71,688
−75,9
−80,434
−85,307
−90,498
−96,049
−102,037
−108,472
−115,279
−122,185
−128,733
−134,546
−139,335
−142,792
−144,589
−144,444
−142,196
−138,041
−132,516
−126,164
−119,518
−113,203
−107,912
−104,321
−103,176
−104,963
−109,775
−117,737
−128,033
−138,411
−146,471
−149,702
−147,189
−140,854
−131,994
−119,739
−99,56
−63,075
−2,202
87,459
204,468
342,827
491,985
638,852
770,522
871,527
929,914
940,258
902,018
824,246
717,964
590,693
449,54
298,072
142,849
−3,039
−126,672
−216,238
−267,965
−287,063
−281,111
−260,465
−232,076
−200,375
−171,437
−147,158
−128,662
−115,52
−102,911
−89,217
−74,886
−61,149
−51,717
−47,866
−48,442
−52,011
−56,395
−60,273
−63,318
−65,135
−65,389
−63,826
−60,452
−55,627
−49,817
−43,474
−37,003
−30,762
−25,152
−20,546
−17,057
−14,593
−12,98
−11,989
−11,419
−11,122
−10,914
−10,593
−10,054
−9,25
−8,182
−6,909
−5,467
−3,867
−2,137
−0,311
1,596
3,563
5,594
7,729
9,986
12,383
14,939
17,661
20,563
23,668
26,993
30,554
34,366
38,429
42,751
47,346
52,224
57,393
62,839
68,522
74,409
80,475
86,691
93,034
99,466
105,936
112,41
118,874
125,323
131,758
138,17
144,536
150,831
157,045
163,188
169,288
175,377
181,484
187,652
193,938
200,415
207,173
214,276
221,759
229,643
237,946
246,694
255,934
265,722
276,093
287,066
298,644
310,815
323,552
336,804
350,479
364,452
378,58
392,728
406,78
420,633
434,179
447,299
459,847
471,644
482,522
492,316
500,859
508
513,6
517,538
519,745
520,197
518,892
515,847
511,071
504,564
496,333
486,395
474,804
461,657
447,064
431,153
414,071
395,979
377,054
357,484
337,43
317,02
296,369
275,575
254,751
234,03
213,555
193,48
173,935
155,032
136,869
119,536
103,106
87,624
73,097
59,502
46,822
35,053
24,196
14,259
5,227
−2,938
−10,296
−16,923
−22,892
−28,285
−33,19
−37,7
−41,914
−45,902
−49,702
−53,326
−56,783
−60,09
−63,269
−66,337
−69,302
−72,16
−74,9
−77,507
−79,967
−82,254
−84,333
−86,162
−87,691
−88,892
−89,759
−90,299
−90,529
−90,465
−90,121
−89,521
−88,695
−87,673
−86,483
−85,15
−83,698
−82,156
−80,559
−78,944
−77,352
−75,814
−74,352
−72,983
−71,718
−70,567
−69,537
−68,63
−67,841
−67,168
−66,612
−66,173
−65,853
−65,651
−65,563
−65,584
−65,708
−65,931
−66,246
−66,649
−67,132
−67,691
−68,319
−69,011
−69,765
−70,573
−71,431
−72,331
−73,267
−74,23
−75,214
−76,213
−77,219
−78,225
−79,226
−80,216
−81,191
−82,147
−83,08
−83,987
−84,865
−85,712
−86,526
−87,305
−88,047
−88,752
−89,418
−90,045
−90,632
−91,181
−91,69
−92,161
−92,596
−92,993
−93,356
−93,685
−93,981
−94,247
−94,484
−94,694
−94,878
−95,04
−95,18
−95,302
−95,407
−95,496
−95,573
−95,637
−95,691
−95,736
−95,773
−95,803
−95,825
−95,842
−95,853
−95,858
−95,859
−95,854
−95,846
−95,832
−95,815
−95,793
−95,767
−95,738
−95,705
−95,668
−95,629
−95,587
−95,542
−95,495
−95,447
−95,396
−95,345
−95,292
−95,239
−95,186
−95,133
−95,081
−95,03
−94,982
−94,936
−94,893
−94,855
−94,821
−94,794
−94,773
−94,76
−94,755
−94,76
−94,774
−94,8
−94,836
−94,885
−94,945
−95,017
−95,101
−95,197
−95,305
−95,423
−95,552
−95,69
−95,837
−95,992
−96,153
−96,321
−96,492
−96,667
−96,844
−97,021
−97,197
−97,37
−97,539
−97,702
−97,858
−98,004
−98,139
−98,262
−98,37
−98,462
−98,537
−98,593
−98,628
−98,642
−98,634
−98,602
−98,547
−98,467
−98,363
−98,234
−98,081
−97,904
−97,705
−97,483
−97,241
−96,978
−96,697
−96,398
−96,084
−95,755
−95,413
−95,061
−94,699
−94,33
−93,956
−93,579
−93,201
−92,824
−92,452
−92,085
−91,727
−91,38
−91,045
−90,725
−90,423
−90,139
−89,876
−89,635
−89,417
−89,225
−89,058
−88,918
−88,804
−88,717
−88,656
−88,622
−88,612
−88,627
−88,667
−88,729
−88,813
−88,918
−89,043
−89,187
−89,346
−89,52
−89,706
−89,9
−90,101
−90,304
−90,505
−90,701
−90,887
−91,06
−91,216
−91,349
−91,457
−91,536
−91,582
−91,592
−91,563
−91,491
−91,372
−91,201
−90,975
−90,691
−90,345
−89,934
−89,453
−88,9
−88,274
−87,571
−86,789
−85,922
−84,962
−83,905
−82,751
−81,505
−80,173
−78,765
−77,293
−75,774
−74,233
−72,693
−71,177
−69,7
−68,272
−66,906
−65,618
−64,431
−63,37
−62,451
−61,672
−61,032
−60,526
−60,139
−59,847
−59,61
−59,362
−59,053
−58,644
−58,109
−57,445
−56,643
−55,683
−54,554
−53,244
−51,757
−50,121
−48,361
−46,496
−44,568
−42,632
−40,766
−39,095
−37,709
−36,677
−36,055
−35,86
−36,111
−36,829
−38,014
−39,656
−41,735
−44,205
−47,003
−50,113
−53,542
−57,326
−61,536
−66,195
−71,297
−76,875
−83,018
−89,758
−96,955
−104,299
−111,275
−117,367
−122,241
−125,583
−126,959
−126,065
−122,91
−117,797
−111,473
−104,845
−98,474
−92,947
−89,149
−87,772
−89,178
−93,543
−100,493
−109,324
−119,799
−130,707
−139,109
−142,408
−138,006
−124,958
−106,29
−84,06
−57,821
−24,85
23,397
94,899
192,235
314,87
453,625
594,156
723,187
824,341
885,357
900,94
868,768
795,895
692,793
567,391
428,525
281,359
131,608
−9,613
−130,417
−219,644
−271,31
−287,609
−277,742
−253,656
−225,758
−202,562
−186,251
−174,785
−165,487
−153,303
−136,612
−117,246
−97,147
−79,668
−66,153
−55,714
−47,507
−40,381
−33,842
−28,042
−23,126
−19,454
−17,376
−16,937
−17,882
−19,622
−21,548
−23,33
−24,756
−25,513
−25,194
−23,614
−20,971
−17,816
−14,784
−12,209
−10,186
−8,841
−8,38
−8,849
−10,077
−11,622
−12,916
−13,634
−13,671
−12,962
−11,437
−9,051
−5,815
−1,875
2,517
7,193
12,082
17,156
22,404
27,775
33,192
38,594
43,973
49,334
54,687
60,034
65,361
70,657
75,935
81,211
86,497
91,788
97,055
102,254
107,362
112,38
117,328
122,242
127,143
132,038
136,933
141,841
146,784
151,79
156,874
162,041
167,318
172,753
178,428
184,441
190,855
197,704
204,997
212,728
220,9
229,517
238,572
248,039
257,885
268,086
278,643
289,568
300,849
312,435
324,24
336,161
348,13
360,095
372,007
383,815
395,453
406,855
417,976
428,785
439,232
449,238
458,674
467,383
475,228
482,094
487,888
492,519
495,869
497,827
498,31
497,261
494,638
490,396
484,47
476,788
467,32
456,086
443,159
428,656
412,703
395,435
377,012
357,617
337,463
316,75
295,649
274,308
252,88
231,536
210,474
189,904
170,008
150,934
132,805
115,716
99,743
84,925
71,262
58,712
47,213
36,712
27,169
18,552
10,812
3,876
−2,35
−7,975
−13,104
−17,836
−22,277
−26,532
−30,685
−34,79
−38,873
−42,926
−46,935
−50,896
−54,802
−58,647
−62,421
−66,1
−69,657
−73,063
−76,287
−79,292
−82,031
−84,452
−86,52
−88,221
−89,553
−90,533
−91,182
−91,518
−91,566
−91,355
−90,915
−90,274
−89,458
−88,49
−87,397
−86,207
−84,954
−83,674
−82,396
−81,138
−79,916
−78,74
−77,617
−76,554
−75,551
−74,605
−73,715
−72,879
−72,1
−71,379
−70,719
−70,116
−69,571
−69,079
−68,641
−68,253
−67,915
−67,625
−67,381
−67,183
−67,029
−66,921
−66,858
−66,839
−66,861
−66,924
−67,024
−67,161
−67,331
−67,534
−67,766
−68,025
−68,311
−68,622
−68,957
−69,315
−69,694
−70,093
−70,512
−70,949
−71,403
−71,874
−72,358
−72,856
−73,365
−73,884
−74,412
−74,947
−75,488
−76,033
−76,581
−77,131
−77,681
−78,229
−78,774
−79,315
−79,848
−80,374
−80,89
−81,396
−81,889
−82,369
−82,835
−83,285
−83,718
−84,133
−84,529
−84,905
−85,26
−85,594
−85,906
−86,195
−86,462
−86,705
−86,927
−87,126
−87,304
−87,46
−87,597
−87,713
−87,811
−87,892
−87,956
−88,005
−88,04
−88,062
−88,074
−88,077
−88,072
−88,061
−88,045
−88,027
−88,008
−87,989
−87,972
−87,959
−87,952
−87,952
−87,961
−87,98
−88,012
−88,057
−88,116
−88,191
−88,283
−88,392
−88,518
−88,663
−88,826
−89,007
−89,207
−89,426
−89,662
−89,917
−90,19
−90,48
−90,788
−91,112
−91,451
−91,805
−92,174
−92,555
−92,949
−93,354
−93,769
−94,193
−94,625
−95,062
−95,504
−95,948
−96,391
−96,833
−97,271
−97,704
−98,128
−98,544
−98,948
−99,34
−99,718
−100,082
−100,43
−100,762
−101,074
−101,366
−101,636
−101,881
−102,099
−102,288
−102,445
−102,567
−102,653
−102,702
−102,711
−102,68
−102,607
−102,491
−102,329
−102,119
−101,859
−101,55
−101,189
−100,777
−100,312
−99,792
−99,216
−98,585
−97,897
−97,15
−96,339
−95,46
−94,504
−93,468
−92,355
−91,171
−89,918
−88,601
−87,225
−85,801
−84,359
−82,926
−81,523
−80,167
−78,864
−77,616
−76,46
−75,441
−74,545
−73,76
−73,055
−72,38
−71,782
−71,318
−70,938
−70,581
−70,268
−69,988
−69,806
−69,832
−69,923
−69,909
−69,776
−69,471
−68,885
−67,989
−66,638
−64,658
−62,248
−59,635
−56,914
−54,265
−51,867
−49,818
−48,347
−47,675
−47,698
−48,316
−49,505
−51,172
−53,304
−55,905
−58,86
−62,053
−65,493
−69,191
−73,164
−77,462
−82,084
−87,028
−92,312
−97,99
−104,151
−110,795
−117,796
−124,912
−131,744
−137,916
−143,157
−147,137
−149,452
−149,842
−148,226
−144,753
−139,949
−134,387
−128,594
−123,235
−118,986
−116,572
−116,706
−119,839
−126,186
−135,021
−144,251
−151,547
−154,606
−152,85
−148,544
−143,256
−136,095
−121,957
−91,196
−34,635
52,214
167,012
301,795
444,68
583,728
708,852
808,478
873,43
896,658
873,14
805,941
700,954
566,061
412,531
250,873
94,323
−42,414
−148,502
−218,859
−256,63
−270,338
−268,462
−256,798
−237,354
−211,902
−184,712
−159,878
−140,958
−128,314
−117,639
−106,105
−92,858
−78,865
−67,883
−61,625
−59,47
−60,249
−61,946
−63,472
−64,684
−65,327
−65,108
−63,68
−60,921
−57,054
−52,409
−47,318
−42,074
−36,955
−32,354
−28,712
−26,217
−24,822
−24,372
−24,618
−25,346
−26,396
−27,557
−28,581
−29,311
−29,672
−29,642
−29,273
−28,603
−27,627
−26,356
−24,797
−22,938
−20,785
−18,348
−15,62
−12,61
−9,329
−5,781
−1,989
2,026
6,26
10,71
15,392
20,315
25,465
30,816
36,336
41,975
47,692
53,443
59,165
64,819
70,383
75,848
81,233
86,551
91,805
96,995
102,116
107,175
112,195
117,2
122,212
127,283
132,473
137,871
143,592
149,718
156,297
163,353
170,884
178,896
187,401
196,395
205,873
215,823
226,235
237,122
248,5
260,348
272,622
285,232
298,056
311,002
324,002
336,985
349,89
362,64
375,153
387,371
399,239
410,684
421,603
431,841
441,233
449,643
456,947
463,053
467,883
471,339
473,329
473,792
472,681
469,968
465,622
459,593
451,827
442,314
431,092
418,252
403,916
388,202
371,252
353,219
334,276
314,62
294,434
273,868
253,057
232,144
211,287
190,672
170,494
150,921
132,092
114,119
97,103
81,119
66,211
52,384
39,603
27,817
16,988
7,088
−1,904
−10,027
−17,344
−23,94
−29,913
−35,358
−40,369
−45,049
−49,506
−53,827
−58,066
−62,251
−66,38
−70,442
−74,439
−78,371
−82,237
−86,028
−89,728
−93,315
−96,766
−100,051
−103,136
−105,974
−108,51
−110,707
−112,55
−114,037
−115,184
−116,008
−116,528
−116,767
−116,755
−116,52
−116,092
−115,494
−114,749
−113,881
−112,921
−111,904
−110,866
−109,837
−108,837
−107,883
−106,983
−106,146
−105,376
−104,675
−104,036
−103,457
−102,937
−102,474
−102,071
−101,726
−101,437
−101,2
−101,009
−100,861
−100,752
−100,678
−100,635
−100,618
−100,625
−100,653
−100,7
−100,764
−100,842
−100,93
−101,025
−101,123
−101,223
−101,32
−101,413
−101,499
−101,577
−101,646
−101,706
−101,757
−101,799
−101,833
−101,861
−101,883
−101,9
−101,915
−101,928
−101,942
−101,956
−101,974
−101,997
−102,027
−102,066
−102,115
−102,177
−102,254
−102,348
−102,461
−102,593
−102,747
−102,924
−103,125
−103,352
−103,604
−103,883
−104,189
−104,522
−104,881
−105,266
−105,676
−106,109
−106,564
−107,039
−107,533
−108,042
−108,566
−109,102
−109,648
−110,202
−110,762
−111,327
−111,894
−112,461
−113,028
−113,591
−114,149
−114,702
−115,246
−115,781
−116,306
−116,82
−117,32
−117,807
−118,279
−118,736
−119,177
−119,602
−120,01
−120,401
−120,776
−121,134
−121,477
−121,805
−122,118
−122,418
−122,706
−122,982
−123,246
−123,501
−123,745
−123,981
−124,208
−124,426
−124,637
−124,841
−125,037
−125,227
−125,41
−125,585
−125,754
−125,915
−126,07
−126,216
−126,355
−126,486
−126,609
−126,722
−126,827
−126,922
−127,007
−127,081
−127,144
−127,195
−127,234
−127,26
−127,272
−127,27
−127,253
−127,222
−127,176
−127,116
−127,042
−126,955
−126,854
−126,741
−126,617
−126,483
−126,338
−126,186
−126,027
−125,861
−125,691
−125,518
−125,343
−125,168
−124,994
−124,823
−124,656
−124,496
−124,343
−124,2
−124,068
−123,949
−123,845
−123,756
−123,685
−123,633
−123,6
−123,588
−123,597
−123,628
−123,681
−123,756
−123,851
−123,967
−124,102
−124,255
−124,425
−124,611
−124,81
−125,02
−125,241
−125,471
−125,706
−125,945
−126,184
−126,421
−126,654
−126,877
−127,089
−127,283
−127,455
−127,601
−127,717
−127,797
−127,838
−127,835
−127,783
−127,679
−127,522
−127,308
−127,033
−126,692
−126,282
−125,802
−125,247
−124,614
−123,899
−123,098
−122,207
−121,227
−120,156
−118,991
−117,728
−116,361
−114,884
−113,301
−111,615
−109,83
−107,959
−106,013
−104,009
−101,976
−99,937
−97,916
−95,933
−94
−92,134
−90,352
−88,671
−87,112
−85,691
−84,412
−83,278
−82,276
−81,38
−80,563
−79,783
−78,99
−78,154
−77,223
−76,148
−74,952
−73,649
−72,258
−70,826
−69,31
−67,655
−65,921
−64,165
−62,349
−60,497
−58,578
−56,532
−54,579
−52,943
−51,672
−50,851
−50,607
−50,991
−52,167
−54,31
−57,207
−60,635
−64,504
−68,637
−72,87
−77,115
−81,177
−84,913
−88,522
−92,184
−95,962
−100
−104,417
−109,229
−114,404
−119,741
−124,723
−128,88
−131,947
−133,607
−133,491
−131,36
−127,199
−121,318
−114,436
−107,298
−100,401
−94,394
−90,172
−88,515
−90,056
−95,101
−103,355
−114,507
−127,648
−140,27
−149,601
−152,97
−149,34
−141,181
−130,235
−114,952
−90,432
−47,243
22,518
119,249
238,748
372,084
507,597
637,312
751,278
837,311
886,107
888,617
844,089
760,455
646,915
515,638
375,469
233,386
100,002
−14,984
−102,361
−158,046
−186,655
−196,505
−196,823
−192,855
−184,806
−171,321
−151,229
−126,222
−99,956
−75,637
−55,891
−41,752
−33,006
−29,218
−29,445
−32,35
−36,719
−41,58
−45,977
−49,188
−50,664
−49,838
−46,622
−41,411
−34,687
−26,966
−18,834
−10,764
−3,242
3,178
8,274
12,082
14,715
16,401
17,367
17,796
17,948
18,099
18,391
18,88
19,572
20,428
21,449
22,651
24,018
25,52
27,136
28,863
30,724
32,75
34,967
37,38
39,985
42,792
45,816
49,076
52,586
56,348
60,354
64,606
69,113
73,888
78,939
84,256
89,812
95,576
101,505
107,554
113,681
119,827
125,944
132,003
137,986
143,892
149,731
155,503
161,202
166,826
172,365
177,826
183,23
188,598
193,975
199,423
205,014
210,847
217,01
223,558
230,53
237,949
245,82
254,155
262,967
272,263
282,065
292,407
303,303
314,766
326,786
339,312
352,275
365,578
379,103
392,751
406,428
420,036
433,495
446,725
459,63
472,114
484,046
495,252
505,564
514,817
522,849
529,537
534,765
538,427
540,464
540,834
539,5
536,45
531,66
525,092
516,743
506,632
494,817
481,42
466,572
450,412
433,101
414,806
395,711
376,021
355,908
335,513
314,98
294,441
274,046
253,974
234,387
215,421
197,19
179,778
163,258
147,706
133,171
119,666
107,177
95,658
85,071
75,404
66,633
58,729
51,641
45,287
39,587
34,474
29,88
25,733
21,955
18,458
15,157
12,005
8,977
6,063
3,258
0,544
−2,095
−4,662
−7,149
−9,54
−11,817
−13,973
−15,998
−17,871
−19,564
−21,042
−22,267
−23,223
−23,913
−24,342
−24,525
−24,476
−24,211
−23,754
−23,134
−22,38
−21,517
−20,566
−19,545
−18,479
−17,394
−16,322
−15,292
−14,328
−13,443
−12,649
−11,955
−11,364
−10,879
−10,497
−10,212
−10,019
−9,914
−9,896
−9,963
−10,111
−10,334
−10,628
−10,985
−11,4
−11,866
−12,378
−12,93
−13,518
−14,136
−14,78
−15,449
−16,137
−16,842
−17,557
−18,28
−19,005
−19,729
−20,448
−21,158
−21,856
−22,539
−23,205
−23,853
−24,481
−25,089
−25,676
−26,243
−26,789
−27,313
−27,818
−28,303
−28,769
−29,217
−29,648
−30,062
−30,462
−30,847
−31,221
−31,583
−31,935
−32,279
−32,616
−32,948
−33,275
−33,6
−33,924
−34,249
−34,574
−34,902
−35,234
−35,571
−35,914
−36,263
−36,62
−36,985
−37,357
−37,738
−38,127
−38,525
−38,93
−39,344
−39,764
−40,192
−40,626
−41,067
−41,513
−41,964
−42,42
−42,88
−43,344
−43,81
−44,279
−44,749
−45,22
−45,691
−46,16
−46,628
−47,092
−47,552
−48,008
−48,458
−48,901
−49,337
−49,765
−50,185
−50,595
−50,995
−51,384
−51,762
−52,129
−52,485
−52,829
−53,161
−53,482
−53,791
−54,089
−54,375
−54,65
−54,914
−55,167
−55,409
−55,64
−55,861
−56,073
−56,275
−56,468
−56,654
−56,832
−57,003
−57,169
−57,329
−57,485
−57,637
−57,785
−57,931
−58,075
−58,217
−58,357
−58,497
−58,636
−58,775
−58,913
−59,051
−59,188
−59,324
−59,459
−59,593
−59,726
−59,857
−59,987
−60,115
−60,241
−60,366
−60,488
−60,609
−60,728
−60,845
−60,96
−61,072
−61,183
−61,291
−61,397
−61,501
−61,603
−61,703
−61,803
−61,902
−62
−62,099
−62,2
−62,303
−62,409
−62,52
−62,637
−62,761
−62,893
−63,036
−63,19
−63,356
−63,537
−63,733
−63,945
−64,173
−64,42
−64,685
−64,968
−65,271
−65,593
−65,935
−66,297
−66,678
−67,078
−67,497
−67,935
−68,39
−68,862
−69,35
−69,852
−70,368
−70,895
−71,433
−71,978
−72,53
−73,086
−73,644
−74,201
−74,754
−75,302
−75,842
−76,371
−76,887
−77,388
−77,871
−78,336
−78,779
−79,2
−79,597
−79,969
−80,315
−80,635
−80,928
−81,194
−81,433
−81,644
−81,827
−81,985
−82,115
−82,221
−82,302
−82,359
−82,394
−82,407
−82,401
−82,377
−82,338
−82,284
−82,218
−82,143
−82,06
−81,973
−81,883
−81,793
−81,706
−81,622
−81,546
−81,478
−81,419
−81,373
−81,34
−81,321
−81,318
−81,33
−81,36
−81,407
−81,472
−81,555
−81,657
−81,777
−81,916
−82,075
−82,254
−82,452
−82,669
−82,906
−83,162
−83,437
−83,73
−84,041
−84,369
−84,714
−85,074
−85,449
−85,837
−86,237
−86,649
−87,07
−87,5
−87,938
−88,382
−88,831
−89,284
−89,74
−90,199
−90,658
−91,117
−91,575
−92,03
−92,48
−92,923
−93,357
−93,777
−94,181
−94,566
−94,928
−95,263
−95,569
−95,841
−96,076
−96,273
−96,428
−96,539
−96,601
−96,61
−96,564
−96,458
−96,288
−96,051
−95,741
−95,353
−94,885
−94,334
−93,697
−92,969
−92,145
−91,219
−90,188
−89,054
−87,819
−86,488
−85,07
−83,574
−82,02
−80,43
−78,825
−77,223
−75,644
−74,101
−72,612
−71,194
−69,861
−68,628
−67,503
−66,482
−65,563
−64,738
−63,988
−63,292
−62,62
−61,928
−61,187
−60,367
−59,445
−58,412
−57,253
−55,965
−54,558
−53,044
−51,448
−49,816
−48,191
−46,62
−45,167
−43,882
−42,822
−42,063
−41,665
−41,679
−42,14
−43,054
−44,423
−46,23
−48,448
−51,033
−53,895
−56,95
−60,144
−63,463
−66,958
−70,697
−74,678
−78,901
−83,41
−88,161
−93,087
−98,037
−102,617
−106,481
−109,442
−111,299
−111,972
−111,541
−110,004
−107,494
−104,513
−101,468
−98,665
−96,486
−95,025
−94,318
−94,694
−96,382
−99,416
−103,975
−110,127
−117,865
−126,936
−136,047
−143,255
−146,398
−144,563
−138,946
−131,016
−121,066
−105,606
−77,245
−27,693
48,965
152,536
277,75
414,696
551,219
676,809
779,153
847,934
876,844
861,037
804,014
713,226
595,774
461,852
318,797
174,685
41,494
−70,924
−154,474
−207,465
−235,417
−245,493
−244,581
−234,607
−215,778
−190,107
−159,996
−131,49
−108,571
−90,495
−76,829
−65,351
−55,189
−48,714
−46,61
−48,617
−53,897
−60,235
−66,012
−70,508
−73,077
−73,336
−71,345
−67,409
−61,999
−55,699
−49,1
−42,647
−36,794
−32,052
−28,603
−26,39
−25,265
−24,951
−25,179
−25,749
−26,433
−26,974
−27,237
−27,17
−26,748
−26,023
−25,028
−23,773
−22,296
−20,64
−18,822
−16,855
−14,741
−12,458
−10,012
−7,421
−4,689
−1,822
1,178
4,324
7,615
11,058
14,674
18,482
22,503
26,757
31,246
35,961
40,896
46,029
51,348
56,849
62,511
68,316
74,253
80,305
86,465
92,732
99,076
105,474
111,908
118,361
124,835
131,344
137,888
144,473
151,11
157,811
164,613
171,566
178,696
186,03
193,584
201,368
209,424
217,79
226,486
235,525
244,904
254,614
264,669
275,098
285,904
297,077
308,578
320,336
332,303
344,434
356,673
368,96
381,199
393,283
405,126
416,655
427,791
438,459
448,544
457,891
466,371
473,863
480,258
485,479
489,426
491,994
493,107
492,712
490,787
487,337
482,355
475,818
467,715
458,04
446,832
434,181
420,175
404,911
388,501
371,061
352,738
333,711
314,136
294,147
273,87
253,409
232,89
212,464
192,289
172,534
153,341
134,829
117,111
100,294
84,472
69,705
56,015
43,385
31,799
21,251
11,737
3,25
−4,235
−10,777
−16,451
−21,352
−25,571
−29,207
−32,366
−35,162
−37,709
−40,093
−42,364
−44,547
−46,66
−48,726
−50,768
−52,808
−54,851
−56,89
−58,911
−60,895
−62,821
−64,659
−66,368
−67,898
−69,197
−70,233
−70,994
−71,485
−71,717
−71,705
−71,46
−71,003
−70,362
−69,562
−68,631
−67,589
−66,457
−65,261
−64,031
−62,802
−61,61
−60,48
−59,43
−58,472
−57,614
−56,86
−56,212
−55,67
−55,224
−54,872
−54,609
−54,434
−54,348
−54,347
−54,427
−54,582
−54,806
−55,093
−55,44
−55,84
−56,289
−56,783
−57,319
−57,892
−58,503
−59,147
−59,823
−60,525
−61,251
−61,996
−62,756
−63,528
−64,308
−65,091
−65,875
−66,658
−67,435
−68,207
−68,969
−69,721
−70,46
−71,184
−71,893
−72,583
−73,254
−73,904
−74,533
−75,138
−75,719
−76,276
−76,808
−77,315
−77,797
−78,254
−78,685
−79,092
−79,473
−79,829
−80,16
−80,466
−80,748
−81,007
−81,243
−81,456
−81,648
−81,82
−81,972
−82,107
−82,224
−82,324
−82,411
−82,484
−82,545
−82,596
−82,638
−82,674
−82,704
−82,73
−82,754
−82,777
−82,801
−82,825
−82,853
−82,883
−82,918
−82,957
−83,002
−83,052
−83,109
−83,173
−83,244
−83,322
−83,407
−83,499
−83,599
−83,705
−83,818
−83,937
−84,063
−84,194
−84,329
−84,47
−84,613
−84,759
−84,907
−85,056
−85,203
−85,35
−85,494
−85,634
−85,77
−85,9
−86,025
−86,143
−86,255
−86,359
−86,456
−86,545
−86,626
−86,7
−86,767
−86,827
−86,88
−86,927
−86,969
−87,005
−87,036
−87,063
−87,086
−87,104
−87,12
−87,132
−87,142
−87,149
−87,154
−87,157
−87,159
−87,159
−87,159
−87,158
−87,157
−87,156
−87,154
−87,152
−87,15
−87,148
−87,145
−87,14
−87,135
−87,127
−87,116
−87,102
−87,085
−87,062
−87,033
−86,998
−86,955
−86,904
−86,844
−86,776
−86,697
−86,608
−86,509
−86,399
−86,279
−86,149
−86,008
−85,856
−85,695
−85,524
−85,344
−85,154
−84,956
−84,75
−84,537
−84,317
−84,092
−83,86
−83,625
−83,386
−83,144
−82,9
−82,655
−82,41
−82,167
−81,926
−81,688
−81,455
−81,227
−81,005
−80,791
−80,585
−80,387
−80,198
−80,018
−79,848
−79,688
−79,538
−79,397
−79,267
−79,147
−79,037
−78,937
−78,846
−78,765
−78,694
−78,631
−78,578
−78,533
−78,496
−78,469
−78,449
−78,438
−78,434
−78,438
−78,449
−78,468
−78,494
−78,527
−78,566
−78,612
−78,664
−78,723
−78,79
−78,863
−78,944
−79,033
−79,131
−79,238
−79,355
−79,482
−79,62
−79,77
−79,931
−80,105
−80,291
−80,49
−80,701
−80,925
−81,161
−81,41
−81,671
−81,944
−82,228
−82,523
−82,828
−83,143
−83,467
−83,799
−84,139
−84,486
−84,838
−85,195
−85,555
−85,917
−86,279
−86,64
−86,997
−87,348
−87,691
−88,022
−88,34
−88,642
−88,925
−89,187
−89,425
−89,637
−89,821
−89,976
−90,097
−90,185
−90,235
−90,247
−90,218
−90,146
−90,028
−89,863
−89,647
−89,378
−89,054
−88,672
−88,231
−87,729
−87,164
−86,535
−85,842
−85,084
−84,26
−83,368
−82,408
−81,379
−80,282
−79,117
−77,884
−76,582
−75,212
−73,778
−72,281
−70,721
−69,098
−67,406
−65,647
−63,826
−61,951
−60,033
−58,083
−56,116
−54,153
−52,221
−50,347
−48,55
−46,85
−45,254
−43,777
−42,438
−41,258
−40,261
−39,458
−38,85
−38,434
−38,206
−38,148
−38,232
−38,414
−38,625
−38,814
−38,946
−38,997
−38,96
−38,819
−38,557
−38,159
−37,612
−36,917
−36,084
−35,122
−34,038
−32,861
−31,642
−30,458
−29,422
−28,624
−28,112
−27,918
−28,052
−28,523
−29,341
−30,513
−32,021
−33,829
−35,937
−38,393
−41,291
−44,758
−48,881
−53,67
−59,121
−65,295
−72,191
−79,682
−87,516
−95,218
−102,297
−108,398
−113,147
−116,096
−116,912
−115,461
−111,852
−106,651
−100,607
−94,4
−88,837
−84,794
−83,128
−84,594
−89,641
−98,249
−109,393
−121,091
−131,29
−137,597
−138,788
−135,582
−127,542
−113,526
−90,837
−53,607
2,705
80,959
182,673
305,519
444,346
590,396
729,726
845,114
920,901
947,411
923,488
857,736
761,766
644,798
513,84
371,77
223,739
80,759
−44,949
−140,58
−200,05
−226,958
−229,02
−217,944
−202,918
−187,296
−173,094
−158,38
−140,508
−120,011
−97,029
−73,749
−53,904
−38,836
−29,176
−24,576
−23,132
−23,567
−25,232
−27,431
−29,809
−31,975
−33,353
−33,513
−32,233
−29,589
−25,809
−21,204
−16,125
−10,902
−5,891
−1,495
1,91
4,209
5,472
5,87
5,656
5,019
4,114
3,144
2,328
1,809
1,657
1,876
2,411
3,239
4,365
5,797
7,551
9,62
11,98
14,616
17,515
20,682
24,129
27,856
31,848
36,085
40,549
45,239
50,164
55,324
60,708
66,28
71,993
77,817
83,736
89,728
95,768
101,808
107,794
113,696
119,508
125,238
130,9
136,494
142,011
147,455
152,838
158,195
163,563
168,966
174,427
179,985
185,701
191,666
197,971
204,674
211,8
219,353
227,331
235,745
244,602
253,892
263,597
273,689
284,155
295,012
306,259
317,871
329,789
341,909
354,136
366,407
378,665
390,862
402,943
414,83
426,461
437,797
448,783
459,352
469,397
478,756
487,28
494,845
501,339
506,685
510,786
513,517
514,783
514,513
512,648
509,155
503,978
497,042
488,307
477,772
465,487
451,564
436,12
419,273
401,17
381,968
361,858
341,063
319,77
298,138
276,324
254,487
232,816
211,528
190,809
170,817
151,68
133,498
116,366
100,362
85,514
71,812
59,214
47,654
37,088
27,487
18,809
10,996
3,963
−2,401
−8,191
−13,497
−18,414
−23,037
−27,474
−31,811
−36,094
−40,339
−44,543
−48,696
−52,798
−56,852
−60,849
−64,771
−68,595
−72,287
−75,827
−79,188
−82,335
−85,222
−87,798
−90,027
−91,897
−93,412
−94,587
−95,44
−95,985
−96,246
−96,254
−96,038
−95,627
−95,048
−94,321
−93,471
−92,529
−91,528
−90,505
−89,489
−88,498
−87,548
−86,648
−85,807
−85,031
−84,322
−83,675
−83,087
−82,559
−82,092
−81,687
−81,344
−81,061
−80,835
−80,662
−80,54
−80,465
−80,435
−80,446
−80,496
−80,583
−80,704
−80,859
−81,046
−81,263
−81,506
−81,772
−82,058
−82,362
−82,68
−83,008
−83,344
−83,686
−84,032
−84,38
−84,728
−85,076
−85,422
−85,765
−86,106
−86,443
−86,776
−87,104
−87,429
−87,749
−88,065
−88,377
−88,685
−88,99
−89,292
−89,592
−89,891
−90,19
−90,488
−90,787
−91,089
−91,392
−91,699
−92,01
−92,326
−92,646
−92,973
−93,305
−93,644
−93,99
−94,342
−94,701
−95,067
−95,438
−95,816
−96,2
−96,588
−96,981
−97,377
−97,777
−98,18
−98,584
−98,99
−99,396
−99,803
−100,21
−100,615
−101,019
−101,421
−101,82
−102,215
−102,607
−102,994
−103,376
−103,752
−104,123
−104,487
−104,845
−105,196
−105,541
−105,879
−106,211
−106,536
−106,855
−107,168
−107,475
−107,777
−108,073
−108,365
−108,653
−108,937
−109,219
−109,497
−109,773
−110,048
−110,32
−110,591
−110,86
−111,128
−111,394
−111,659
−111,923
−112,184
−112,445
−112,703
−112,959
−113,213
−113,464
−113,712
−113,955
−114,194
−114,427
−114,654
−114,874
−115,087
−115,291
−115,486
−115,671
−115,845
−116,008
−116,159
−116,296
−116,42
−116,529
−116,624
−116,703
−116,767
−116,817
−116,851
−116,871
−116,876
−116,867
−116,845
−116,811
−116,764
−116,707
−116,639
−116,562
−116,478
−116,386
−116,29
−116,19
−116,089
−115,987
−115,887
−115,791
−115,699
−115,615
−115,539
−115,474
−115,42
−115,379
−115,354
−115,344
−115,351
−115,376
−115,42
−115,483
−115,564
−115,665
−115,785
−115,922
−116,077
−116,248
−116,434
−116,635
−116,847
−117,07
−117,301
−117,538
−117,778
−118,019
−118,257
−118,488
−118,707
−118,912
−119,095
−119,253
−119,38
−119,471
−119,522
−119,527
−119,481
−119,381
−119,223
−119,003
−118,717
−118,363
−117,934
−117,428
−116,84
−116,166
−115,402
−114,544
−113,589
−112,534
−111,377
−110,118
−108,757
−107,293
−105,723
−104,046
−102,269
−100,4
−98,448
−96,425
−94,348
−92,233
−90,109
−88
−85,932
−83,925
−81,993
−80,147
−78,403
−76,773
−75,27
−73,901
−72,659
−71,536
−70,526
−69,617
−68,797
−68,043
−67,311
−66,566
−65,784
−64,946
−64,052
−63,105
−62,107
−61,069
−60,011
−58,962
−57,963
−57,055
−56,258
−55,595
−55,097
−54,803
−54,783
−55,085
−55,727
−56,713
−58,028
−59,652
−61,571
−63,735
−66,048
−68,445
−70,902
−73,461
−76,251
−79,363
−82,811
−86,616
−90,831
−95,455
−100,392
−105,374
−109,931
−113,686
−116,488
−118,281
−118,976
−118,492
−116,878
−114,435
−111,777
−109,45
−107,636
−106,312
−105,582
−105,726
−106,935
−109,316
−112,742
−116,973
−122,22
−128,283
−133,79
−137,052
−136,251
−131,143
−123,644
−114,795
−103,82
−85,555
−51,844
3,01
82,193
182,515
297,238
421,369
547,274
667,523
771,589
843,516
872
851,385
785,467
687,307
568,692
438,247
300,166
157,106
16,995
−107,093
−200,752
−254,759
−269,56
−255,902
−229,581
−203,877
−186,31
−176,213
−167,52
−154,591
−134,439
−108,427
−81,491
−58,625
−42,72
−34,252
−31,717
−32,792
−35,936
−40,325
−45,05
−49,331
−52,308
−53,06
−51,343
−47,451
−41,781
−34,838
−27,246
−19,547
−12,326
−6,201
−1,4
2,13
4,532
6,075
7,029
7,594
8,013
8,551
9,335
10,423
11,839
13,529
15,449
17,569
19,837
22,21
24,661
27,16
29,688
32,243
34,832
37,49
40,25
43,133
46,154
49,312
52,61
56,064
59,699
63,541
67,605
71,889
76,394
81,131
86,093
91,264
96,596
102,004
107,43
112,84
118,221
123,587
128,943
134,278
139,593
144,89
150,18
155,492
160,841
166,227
171,677
177,235
182,978
189,028
195,468
202,344
209,681
217,471
225,712
234,42
243,589
253,201
263,236
273,668
284,492
295,739
307,404
319,456
331,83
344,41
357,108
369,87
382,642
395,378
408,021
420,487
432,709
444,639
456,214
467,358
477,952
487,824
496,821
504,814
511,689
517,371
521,767
524,758
526,248
526,164
524,456
521,103
516,076
509,329
500,835
490,6
478,682
465,201
450,284
434,056
416,649
398,198
378,865
358,847
338,321
317,443
296,351
275,177
254,067
233,189
212,718
192,804
173,567
155,092
137,455
120,732
104,986
90,265
76,578
63,901
52,212
41,494
31,738
22,927
15,024
7,966
1,67
−3,943
−8,942
−13,396
−17,378
−20,968
−24,252
−27,309
−30,186
−32,907
−35,495
−37,966
−40,344
−42,649
−44,885
−47,045
−49,111
−51,071
−52,911
−54,622
−56,182
−57,564
−58,734
−59,659
−60,325
−60,736
−60,896
−60,82
−60,522
−60,016
−59,326
−58,484
−57,515
−56,445
−55,296
−54,086
−52,839
−51,582
−50,344
−49,156
−48,037
−47,003
−46,062
−45,223
−44,487
−43,857
−43,33
−42,897
−42,554
−42,298
−42,125
−42,035
−42,023
−42,084
−42,212
−42,401
−42,643
−42,935
−43,27
−43,642
−44,047
−44,48
−44,938
−45,419
−45,92
−46,436
−46,964
−47,501
−48,042
−48,584
−49,124
−49,658
−50,184
−50,701
−51,206
−51,699
−52,18
−52,648
−53,105
−53,549
−53,983
−54,406
−54,819
−55,224
−55,62
−56,009
−56,392
−56,771
−57,146
−57,519
−57,891
−58,264
−58,637
−59,013
−59,392
−59,774
−60,161
−60,552
−60,949
−61,352
−61,761
−62,176
−62,598
−63,027
−63,463
−63,905
−64,352
−64,804
−65,261
−65,721
−66,182
−66,645
−67,107
−67,568
−68,026
−68,48
−68,93
−69,374
−69,81
−70,239
−70,658
−71,068
−71,468
−71,857
−72,234
−72,601
−72,955
−73,298
−73,629
−73,949
−74,258
−74,555
−74,842
−75,119
−75,385
−75,643
−75,891
−76,131
−76,365
−76,591
−76,812
−77,028
−77,24
−77,449
−77,656
−77,862
−78,068
−78,276
−78,485
−78,696
−78,912
−79,132
−79,356
−79,587
−79,822
−80,064
−80,312
−80,566
−80,826
−81,092
−81,363
−81,64
−81,922
−82,208
−82,498
−82,792
−83,089
−83,389
−83,69
−83,994
−84,298
−84,604
−84,909
−85,215
−85,519
−85,823
−86,126
−86,426
−86,724
−87,018
−87,31
−87,598
−87,882
−88,162
−88,437
−88,709
−88,976
−89,24
−89,5
−89,757
−90,011
−90,263
−90,513
−90,762
−91,01
−91,259
−91,509
−91,76
−92,013
−92,269
−92,528
−92,791
−93,057
−93,327
−93,601
−93,879
−94,161
−94,448
−94,738
−95,033
−95,332
−95,634
−95,941
−96,251
−96,565
−96,881
−97,2
−97,521
−97,842
−98,164
−98,486
−98,807
−99,126
−99,442
−99,753
−100,06
−100,361
−100,654
−100,94
−101,216
−101,482
−101,737
−101,981
−102,214
−102,435
−102,644
−102,841
−103,027
−103,2
−103,362
−103,512
−103,649
−103,776
−103,891
−103,995
−104,088
−104,171
−104,245
−104,311
−104,368
−104,419
−104,464
−104,504
−104,54
−104,574
−104,606
−104,639
−104,672
−104,709
−104,75
−104,797
−104,85
−104,911
−104,981
−105,06
−105,148
−105,245
−105,351
−105,467
−105,592
−105,727
−105,87
−106,023
−106,184
−106,355
−106,533
−106,718
−106,909
−107,106
−107,305
−107,506
−107,705
−107,899
−108,087
−108,264
−108,429
−108,577
−108,706
−108,814
−108,896
−108,951
−108,975
−108,964
−108,914
−108,821
−108,681
−108,492
−108,248
−107,947
−107,584
−107,156
−106,661
−106,095
−105,456
−104,736
−103,927
−103,024
−102,025
−100,933
−99,751
−98,487
−97,151
−95,758
−94,331
−92,892
−91,461
−90,054
−88,68
−87,352
−86,084
−84,897
−83,813
−82,846
−81,997
−81,263
−80,64
−80,111
−79,656
−79,237
−78,794
−78,278
−77,648
−76,878
−75,958
−74,879
−73,63
−72,204
−70,596
−68,815
−66,897
−64,878
−62,797
−60,705
−58,658
−56,733
−55,043
−53,682
−52,729
−52,244
−52,253
−52,767
−53,795
−55,327
−57,343
−59,821
−62,688
−65,847
−69,246
−72,853
−76,691
−80,825
−85,251
−89,922
−94,844
−100,058
−105,563
−111,317
−117,097
−122,499
−127,198
−130,989
−133,736
−135,329
−135,659
−134,644
−132,456
−129,549
−126,431
−123,549
−121,035
−119,037
−117,927
−117,893
−119,686
−123,932
−129,97
−137,686
−145,421
−150,13
−151,614
−149,011
−143,63
−139,809
−137,013
−133,145
−122,351
−94,03
−41,287
39,669
147,321
274,658
412,673
550,633
678,021
782,566
852,941
880,791
861,024
796,953
695,821
567,177
422,589
270,813
122,546
−11,093
−121,193
−199,548
−245,12
−261,773
−255,419
−235,287
−208,066
−179,318
−153,779
−132,205
−114,42
−98,544
−82,385
−66,33
−51,84
−41,326
−36,438
−36,745
−40,709
−46,189
−51,625
−56,393
−60,179
−62,879
−64,334
−64,308
−62,921
−60,544
−57,545
−54,28
−51,022
−47,949
−45,267
−43,191
−41,753
−40,821
−40,228
−39,775
−39,285
−38,646
−37,726
−36,366
−34,509
−32,175
−29,419
−26,345
−23,044
−19,572
−16,012
−12,462
−8,982
−5,612
−2,362
0,804
3,906
6,952
9,954
12,926
15,895
18,91
22,025
25,282
28,721
32,363
36,232
40,358
44,744
49,372
54,193
59,131
64,134
69,174
74,241
79,332
84,442
89,559
94,674
99,79
104,927
110,11
115,357
120,689
126,142
131,77
137,662
143,917
150,604
157,768
165,428
173,584
182,236
191,377
200,986
211,035
221,482
232,285
243,412
254,828
266,496
278,379
290,404
302,492
314,588
326,637
338,605
350,469
362,195
373,749
385,101
396,21
407,04
417,554
427,697
437,406
446,593
455,146
462,967
469,961
476,017
481,033
484,892
487,468
488,661
488,394
486,605
483,251
478,292
471,681
463,389
453,417
441,806
428,643
414,025
398,056
380,868
362,613
343,463
323,623
303,272
282,563
261,642
240,648
219,733
199,077
178,861
159,236
140,334
122,26
105,105
88,963
73,891
59,908
47
35,12
24,234
14,325
5,373
−2,653
−9,805
−16,166
−21,831
−26,882
−31,405
−35,49
−39,231
−42,734
−46,076
−49,3
−52,424
−55,447
−58,377
−61,23
−64,016
−66,738
−69,386
−71,941
−74,383
−76,698
−78,862
−80,844
−82,603
−84,093
−85,283
−86,17
−86,76
−87,07
−87,118
−86,918
−86,492
−85,871
−85,082
−84,153
−83,107
−81,963
−80,743
−79,477
−78,197
−76,935
−75,716
−74,557
−73,467
−72,455
−71,526
−70,68
−69,916
−69,226
−68,605
−68,05
−67,559
−67,131
−66,764
−66,453
−66,194
−65,98
−65,809
−65,675
−65,575
−65,504
−65,46
−65,439
−65,441
−65,465
−65,509
−65,572
−65,653
−65,749
−65,859
−65,982
−66,116
−66,26
−66,412
−66,574
−66,744
−66,924
−67,115
−67,318
−67,534
−67,765
−68,012
−68,276
−68,56
−68,862
−69,185
−69,529
−69,894
−70,28
−70,687
−71,115
−71,564
−72,033
−72,522
−73,029
−73,552
−74,09
−74,642
−75,204
−75,774
−76,351
−76,931
−77,512
−78,091
−78,667
−79,236
−79,795
−80,342
−80,874
−81,388
−81,88
−82,347
−82,788
−83,198
−83,576
−83,919
−84,226
−84,495
−84,725
−84,915
−85,064
−85,172
−85,239
−85,264
−85,248
−85,192
−85,097
−84,964
−84,795
−84,591
−84,355
−84,088
−83,794
−83,473
−83,128
−82,761
−82,374
−81,97
−81,551
−81,118
−80,675
−80,223
−79,765
−79,303
−78,839
−78,374
−77,912
−77,452
−76,998
−76,549
−76,108
−75,674
−75,249
−74,834
−74,428
−74,032
−73,645
−73,268
−72,9
−72,54
−72,187
−71,84
−71,498
−71,161
−70,826
−70,493
−70,16
−69,827
−69,492
−69,153
−68,811
−68,462
−68,107
−67,744
−67,371
−66,987
−66,592
−66,183
−65,76
−65,322
−64,867
−64,395
−63,905
−63,396
−62,868
−62,32
−61,751
−61,162
−60,553
−59,923
−59,274
−58,605
−57,917
−57,212
−56,49
−55,752
−54,999
−54,232
−53,453
−52,663
−51,864
−51,056
−50,241
−49,421
−48,597
−47,772
−46,946
−46,122
−45,301
−44,485
−43,677
−42,877
−42,089
−41,313
−40,552
−39,808
−39,082
−38,376
−37,691
−37,029
−36,392
−35,779
−35,192
−34,632
−34,1
−33,595
−33,118
−32,669
−32,248
−31,855
−31,49
−31,152
−30,84
−30,555
−30,296
−30,061
−29,85
−29,663
−29,498
−29,354
−29,231
−29,127
−29,041
−28,972
−28,918
−28,879
−28,853
−28,839
−28,836
−28,842
−28,857
−28,88
−28,91
−28,946
−28,989
−29,036
−29,089
−29,146
−29,208
−29,276
−29,348
−29,427
−29,511
−29,603
−29,701
−29,808
−29,923
−30,048
−30,184
−30,33
−30,489
−30,66
−30,845
−31,044
−31,259
−31,49
−31,738
−32,003
−32,287
−32,591
−32,913
−33,257
−33,621
−34,007
−34,415
−34,845
−35,297
−35,773
−36,273
−36,795
−37,341
−37,911
−38,504
−39,121
−39,76
−40,423
−41,107
−41,814
−42,541
−43,29
−44,058
−44,845
−45,65
−46,474
−47,314
−48,171
−49,045
−49,934
−50,838
−51,758
−52,692
−53,641
−54,605
−55,582
−56,573
−57,577
−58,595
−59,625
−60,668
−61,723
−62,789
−63,866
−64,953
−66,049
−67,153
−68,264
−69,38
−70,501
−71,625
−72,752
−73,88
−75,011
−76,143
−77,274
−78,403
−79,527
−80,644
−81,753
−82,849
−83,929
−84,988
−86,025
−87,036
−88,018
−88,968
−89,88
−90,751
−91,575
−92,35
−93,074
−93,744
−94,356
−94,907
−95,393
−95,81
−96,155
−96,423
−96,608
−96,704
−96,702
−96,598
−96,387
−96,065
−95,627
−95,062
−94,358
−93,505
−92,493
−91,328
−90,031
−88,621
−87,123
−85,561
−83,946
−82,306
−80,699
−79,129
−77,548
−75,92
−74,191
−72,383
−70,631
−68,986
−67,401
−65,931
−64,681
−63,755
−63,33
−63,342
−63,437
−63,416
−63,22
−62,686
−61,659
−59,915
−57,067
−53,098
−48,39
−43,181
−37,63
−31,932
−26,185
−20,662
−15,847
−11,876
−8,613
−5,968
−3,811
−2,15
−1,122
−0,669
−0,635
−1,064
−2,024
−3,662
−6,207
−9,606
−13,764
−18,698
−24,312
−30,455
−37,051
−43,852
−50,564
−57,08
−63,121
−68,365
−72,663
−75,875
−77,847
−78,531
−77,88
−75,907
−72,942
−69,364
−65,501
−61,607
−57,96
−54,991
−53,128
−52,729
−53,971
−56,868
−61,459
−67,331
−72,95
−76,26
−75,092
−68,705
−58,677
−46,508
−32,08
−11,373
23,18
79,056
160,974
267,757
393,996
531,154
668,354
795,075
897,951
964,193
985,667
958,626
889,204
788,472
666,359
532,401
391,419
248,478
113,345
−3,973
−93,5
−150,675
−179,052
−184,762
−175,039
−155,211
−128,246
−98,536
−70,456
−47,521
−31,156
−18,765
−7,487
3,85
14,537
21,61
23,331
20,248
13,901
6,557
−0,181
−5,729
−9,58
−11,272
−10,695
−8,023
−3,683
1,711
7,581
13,476
18,879
23,243
26,311
28,058
28,595
28,195
27,12
25,587
23,858
22,187
20,713
19,495
18,552
17,865
17,438
17,272
17,351
17,655
18,183
18,961
20,027
21,402
23,077
25,035
27,263
29,77
32,578
35,696
39,122
42,844
46,851
51,148
55,745
60,636
65,805
71,223
76,843
82,64
88,6
94,697
100,901
107,174
113,466
119,758
126,05
132,346
138,65
144,96
151,265
157,57
163,893
170,252
176,673
183,177
189,784
196,539
203,509
210,757
218,348
226,316
234,661
243,385
252,495
261,987
271,862
282,108
292,7
303,633
314,926
326,578
338,581
350,89
363,417
376,088
388,834
401,59
414,307
426,921
439,35
451,533
463,413
474,927
486,004
496,529
506,337
515,276
523,209
530,013
535,598
539,857
542,661
543,918
543,554
541,516
537,773
532,274
524,949
515,764
504,717
491,855
477,29
461,132
443,501
424,544
404,421
383,328
361,491
339,103
316,327
293,326
270,262
247,33
224,756
202,737
181,443
161,023
141,596
123,28
106,171
90,315
75,716
62,343
50,137
39,061
29,089
20,179
12,276
5,288
−0,898
−6,386
−11,278
−15,684
−19,717
−23,505
−27,15
−30,714
−34,224
−37,687
−41,099
−44,467
−47,795
−51,076
−54,292
−57,416
−60,413
−63,259
−65,921
−68,355
−70,508
−72,316
−73,739
−74,759
−75,377
−75,607
−75,465
−74,969
−74,144
−73,025
−71,647
−70,043
−68,246
−66,28
−64,179
−61,98
−59,725
−57,458
−55,215
−53,021
−50,897
−48,857
−46,915
−45,082
−43,362
−41,755
−40,26
−38,882
−37,625
−36,494
−35,492
−34,619
−33,874
−33,255
−32,761
−32,391
−32,143
−32,014
−32,003
−32,105
−32,321
−32,647
−33,082
−33,62
−34,256
−34,984
−35,798
−36,691
−37,656
−38,686
−39,772
−40,908
−42,087
−43,301
−44,543
−45,807
−47,086
−48,373
−49,661
−50,946
−52,219
−53,475
−54,708
−55,913
−57,085
−58,219
−59,31
−60,354
−61,349
−62,291
−63,177
−64,006
−64,774
−65,481
−66,126
−66,707
−67,225
−67,679
−68,07
−68,4
−68,669
−68,878
−69,031
−69,129
−69,174
−69,169
−69,117
−69,019
−68,88
−68,703
−68,489
−68,243
−67,967
−67,664
−67,339
−66,993
−66,63
−66,251
−65,861
−65,461
−65,054
−64,642
−64,227
−63,811
−63,395
−62,982
−62,572
−62,168
−61,77
−61,379
−60,996
−60,622
−60,257
−59,902
−59,556
−59,22
−58,893
−58,575
−58,266
−57,965
−57,671
−57,384
−57,103
−56,828
−56,557
−56,29
−56,027
−55,767
−55,509
−55,254
−55,001
−54,75
−54,5
−54,251
−54,003
−53,756
−53,51
−53,264
−53,02
−52,776
−52,533
−52,291
−52,05
−51,809
−51,568
−51,327
−51,087
−50,848
−50,609
−50,373
−50,138
−49,907
−49,68
−49,458
−49,242
−49,032
−48,829
−48,633
−48,445
−48,265
−48,094
−47,931
−47,777
−47,634
−47,501
−47,378
−47,267
−47,167
−47,078
−47,001
−46,936
−46,881
−46,838
−46,807
−46,789
−46,782
−46,789
−46,81
−46,844
−46,891
−46,952
−47,024
−47,106
−47,195
−47,29
−47,389
−47,49
−47,591
−47,692
−47,79
−47,886
−47,982
−48,075
−48,166
−48,252
−48,331
−48,4
−48,457
−48,498
−48,521
−48,523
−48,502
−48,459
−48,396
−48,313
−48,211
−48,088
−47,94
−47,764
−47,564
−47,342
−47,099
−46,845
−46,588
−46,344
−46,139
−45,991
−45,913
−45,912
−45,989
−46,145
−46,381
−46,696
−47,088
−47,555
−48,091
−48,69
−49,355
−50,079
−50,849
−51,645
−52,423
−53,154
−53,823
−54,423
−54,959
−55,449
−55,904
−56,35
−56,831
−57,386
−58,06
−58,9
−59,928
−61,179
−62,689
−64,496
−66,667
−69,255
−72,292
−75,801
−79,794
−84,259
−89,192
−94,573
−100,339
−106,429
−112,771
−119,276
−125,89
−132,559
−139,222
−145,826
−152,299
−158,566
−164,578
−170,289
−175,654
−180,646
−185,228
−189,364
−193,069
−196,367
−199,291
−201,901
−204,229
−206,292
−208,119
−209,728
−211,141
−212,386
−213,475
−214,413
−215,217
−215,899
−216,479
−216,99
−217,43
−217,783
−218,03
−218,132
−218,062
−217,812
−217,365
−216,706
−215,833
−214,745
−213,451
−211,974
−210,328
−208,526
−206,583
−204,509
−202,326
−200,062
−197,748
−195,418
−193,106
−190,84
−188,646
−186,556
−184,585
−182,737
−181,009
−179,387
−177,85
−176,382
−174,956
−173,535
−172,092
−170,602
−169,043
−167,408
−165,684
−163,863
−161,947
−159,942
−157,864
−155,753
−153,651
−151,603
−149,671
−147,899
−146,343
−145,075
−144,147
−143,606
−143,487
−143,794
−144,522
−145,658
−147,172
−149,034
−151,18
−153,499
−155,915
−158,387
−160,925
−163,634
−166,591
−169,799
−173,299
−177,157
−181,368
−185,884
−190,446
−194,563
−197,828
−199,956
−200,755
−200,13
−198,003
−194,356
−189,536
−184,201
−178,975
−174,422
−170,869
−168,51
−167,71
−168,793
−171,823
−176,703
−183,195
−191,018
−199,652
−207,789
−213,592
−215,014
−211,211
−203,187
−192,16
−178,555
−159,382
−128,252
−77,945
−2,675
97,889
219,516
353,684
488,92
614,873
719,22
791,077
823,758
812,624
761,345
677,738
568,562
441,861
302,431
156,142
14,419
−109,778
−204,173
−263,386
−290,92
−296,747
−291,674
−281,014
−267,268
−249,515
−226,709
−202,061
−177,109
−153,535
−133,179
−115,316
−101,035
−91,292
−85,721
−84,125
−84,95
−86,743
−88,793
−90,296
−90,796
−89,861
−86,968
−82,153
−75,825
−68,372
−60,298
−52,088
−44,129
−36,931
−30,984
−26,465
−23,334
−21,441
−20,521
−20,328
−20,654
−21,242
−21,842
−22,302
−22,538
−22,518
−22,262
−21,776
−21,063
−20,131
−18,983
−17,6
−15,953
−14,026
−11,814
−9,323
−6,564
−3,537
−0,239
3,324
7,132
11,169
15,427
19,907
24,623
29,576
34,744
40,095
45,59
51,199
56,903
62,675
68,475
74,259
79,996
85,682
91,334
96,974
102,609
108,24
113,864
119,489
125,142
130,853
136,648
142,55
148,594
154,834
161,356
168,243
175,547
183,291
191,467
200,064
209,087
218,536
228,4
238,663
249,298
260,294
271,666
283,421
295,537
307,961
320,6
333,358
346,172
358,986
371,755
384,42
396,904
409,135
421,057
432,614
443,735
454,307
464,173
473,174
481,18
488,075
493,776
498,194
501,215
502,746
502,714
501,073
497,801
492,872
486,245
477,886
467,797
456,027
442,684
427,89
411,765
394,439
376,043
356,741
336,724
316,169
295,232
274,048
252,749
231,477
210,401
189,699
169,526
150,01
131,248
113,326
96,33
80,332
65,386
51,506
38,672
26,864
16,069
6,281
−2,516
−10,358
−17,308
−23,448
−28,861
−33,623
−37,812
−41,51
−44,808
−47,798
−50,568
−53,169
−55,631
−57,979
−60,234
−62,421
−64,562
−66,664
−68,717
−70,708
−72,619
−74,437
−76,146
−77,719
−79,125
−80,325
−81,281
−81,977
−82,414
−82,596
−82,534
−82,243
−81,734
−81,033
−80,169
−79,167
−78,053
−76,849
−75,573
−74,251
−72,912
−71,584
−70,299
−69,077
−67,931
−66,872
−65,906
−65,034
−64,258
−63,573
−62,971
−62,447
−61,997
−61,616
−61,303
−61,053
−60,861
−60,718
−60,619
−60,557
−60,526
−60,52
−60,535
−60,565
−60,607
−60,658
−60,716
−60,779
−60,843
−60,906
−60,965
−61,017
−61,059
−61,09
−61,107
−61,108
−61,092
−61,061
−61,013
−60,951
−60,875
−60,787
−60,688
−60,58
−60,466
−60,348
−60,227
−60,106
−59,988
−59,875
−59,77
−59,676
−59,595
−59,529
−59,482
−59,455
−59,451
−59,471
−59,516
−59,588
−59,688
−59,817
−59,976
−60,165
−60,385
−60,636
−60,918
−61,231
−61,574
−61,946
−62,346
−62,773
−63,225
−63,7
−64,196
−64,711
−65,244
−65,791
−66,351
−66,921
−67,498
−68,08
−68,664
−69,248
−69,828
−70,403
−70,97
−71,526
−72,069
−72,598
−73,109
−73,603
−74,075
−74,526
−74,953
−75,356
−75,732
−76,082
−76,404
−76,698
−76,964
−77,2
−77,408
−77,587
−77,738
−77,861
−77,958
−78,027
−78,072
−78,092
−78,09
−78,066
−78,022
−77,96
−77,881
−77,788
−77,681
−77,565
−77,439
−77,307
−77,171
−77,032
−76,893
−76,756
−76,622
−76,494
−76,375
−76,265
−76,166
−76,081
−76,011
−75,958
−75,922
−75,906
−75,909
−75,934
−75,98
−76,048
−76,138
−76,251
−76,387
−76,545
−76,725
−76,927
−77,15
−77,392
−77,654
−77,933
−78,228
−78,537
−78,86
−79,195
−79,538
−79,89
−80,247
−80,608
−80,97
−81,331
−81,689
−82,041
−82,386
−82,72
−83,042
−83,349
−83,64
−83,912
−84,163
−84,394
−84,6
−84,783
−84,941
−85,072
−85,177
−85,255
−85,306
−85,331
−85,33
−85,303
−85,252
−85,178
−85,082
−84,965
−84,829
−84,677
−84,509
−84,327
−84,134
−83,933
−83,725
−83,513
−83,301
−83,09
−82,886
−82,689
−82,505
−82,335
−82,183
−82,05
−81,941
−81,858
−81,802
−81,776
−81,783
−81,824
−81,899
−82,012
−82,161
−82,348
−82,572
−82,833
−83,13
−83,462
−83,829
−84,23
−84,662
−85,125
−85,617
−86,136
−86,68
−87,245
−87,829
−88,428
−89,037
−89,653
−90,268
−90,878
−91,478
−92,062
−92,625
−93,16
−93,663
−94,128
−94,552
−94,929
−95,254
−95,521
−95,725
−95,86
−95,92
−95,903
−95,802
−95,613
−95,331
−94,952
−94,473
−93,892
−93,203
−92,4
−91,473
−90,416
−89,231
−87,918
−86,484
−84,938
−83,291
−81,561
−79,774
−77,953
−76,12
−74,294
−72,483
−70,702
−68,968
−67,302
−65,732
−64,272
−62,925
−61,691
−60,566
−59,537
−58,583
−57,667
−56,727
−55,714
−54,59
−53,33
−51,928
−50,379
−48,674
−46,808
−44,777
−42,591
−40,285
−37,897
−35,462
−33,034
−30,666
−28,441
−26,477
−24,871
−23,702
−23,034
−22,892
−23,291
−24,238
−25,727
−27,739
−30,252
−33,202
−36,498
−40,097
−43,969
−48,126
−52,623
−57,447
−62,544
−67,914
−73,601
−79,592
−85,836
−92,152
−98,15
−103,53
−108,108
−111,656
−113,975
−114,928
−114,362
−112,322
−109,222
−105,418
−101,216
−97,047
−93,296
−90,397
−88,891
−89,239
−91,688
−96,464
−103,775
−112,906
−122,025
−129,127
−132,07
−130,389
−126,154
−120,468
−112,266
−96,724
−65,058
−9,549
73,094
180,152
304,234
435,546
564,497
682,927
780,592
847,807
877,178
863,702
810,937
726,677
618,716
496
363,585
226,888
95,777
−19,451
−108,564
−166,489
−196,801
−207,925
−208,406
−202,497
−189,619
−166,332
−132,145
−91,992
−52,568
−21,361
−1,74
8,592
12,528
13,598
13,398
10,668
5,112
−3,187
−13,165
−22,495
−29,72
−34,041
−35,25
−33,916
−30,56
−25,564
−19,523
−13,008
−6,59
−0,897
3,816
7,588
10,527
12,83
14,699
16,286
17,788
19,435
21,318
23,429
25,715
28,057
30,374
32,631
34,783
36,792
38,647
40,357
41,963
43,541
45,159
46,874
48,735
50,771
53,011
55,491
58,243
61,301
64,694
68,438
72,54
77,006
81,82
86,958
92,371
97,979
103,696
109,447
115,173
120,842
126,439
131,96
137,406
142,784
148,099
153,365
158,597
163,812
169,034
174,294
179,64
185,151
190,928
197,067
203,658
210,757
218,388
226,558
235,265
244,502
254,26
264,519
275,262
286,472
298,138
310,262
322,835
335,81
349,109
362,634
376,281
389,968
403,64
417,239
430,706
443,973
456,968
469,631
481,897
493,685
504,883
515,344
524,91
533,453
540,871
547,076
551,997
555,541
557,603
558,105
556,993
554,226
549,78
543,618
535,701
526,027
514,637
501,625
487,115
471,224
454,069
435,774
416,479
396,355
375,592
354,358
332,797
311,054
289,275
267,624
246,294
225,453
205,235
185,749
167,083
149,325
132,563
116,866
102,264
88,756
76,312
64,911
54,542
45,184
36,8
29,328
22,673
16,743
11,459
6,742
2,506
−1,338
−4,896
−8,262
−11,495
−14,632
−17,694
−20,698
−23,668
−26,621
−29,562
−32,479
−35,351
−38,155
−40,873
−43,49
−45,976
−48,296
−50,407
−52,266
−53,853
−55,166
−56,207
−56,988
−57,52
−57,815
−57,898
−57,799
−57,544
−57,16
−56,667
−56,086
−55,441
−54,761
−54,076
−53,418
−52,806
−52,255
−51,776
−51,374
−51,053
−50,813
−50,652
−50,56
−50,533
−50,567
−50,66
−50,809
−51,011
−51,26
−51,551
−51,876
−52,232
−52,612
−53,012
−53,429
−53,857
−54,294
−54,737
−55,187
−55,64
−56,095
−56,548
−56,998
−57,441
−57,875
−58,299
−58,71
−59,106
−59,487
−59,852
−60,201
−60,534
−60,852
−61,155
−61,445
−61,722
−61,988
−62,243
−62,489
−62,727
−62,959
−63,186
−63,41
−63,633
−63,855
−64,078
−64,305
−64,535
−64,769
−65,009
−65,255
−65,508
−65,768
−66,035
−66,309
−66,59
−66,879
−67,175
−67,479
−67,789
−68,107
−68,431
−68,76
−69,096
−69,435
−69,779
−70,125
−70,474
−70,824
−71,174
−71,524
−71,872
−72,218
−72,561
−72,9
−73,233
−73,56
−73,88
−74,192
−74,496
−74,792
−75,078
−75,356
−75,624
−75,884
−76,135
−76,377
−76,612
−76,838
−77,058
−77,27
−77,475
−77,674
−77,866
−78,053
−78,233
−78,408
−78,578
−78,742
−78,901
−79,056
−79,206
−79,352
−79,494
−79,632
−79,767
−79,898
−80,027
−80,153
−80,277
−80,4
−80,521
−80,641
−80,759
−80,875
−80,99
−81,102
−81,212
−81,319
−81,422
−81,522
−81,618
−81,711
−81,799
−81,883
−81,962
−82,037
−82,109
−82,176
−82,24
−82,3
−82,357
−82,412
−82,464
−82,515
−82,564
−82,613
−82,661
−82,71
−82,759
−82,808
−82,859
−82,911
−82,964
−83,021
−83,08
−83,144
−83,211
−83,285
−83,364
−83,451
−83,545
−83,647
−83,758
−83,879
−84,009
−84,148
−84,298
−84,458
−84,628
−84,808
−84,997
−85,195
−85,401
−85,615
−85,835
−86,062
−86,293
−86,528
−86,767
−87,007
−87,249
−87,491
−87,732
−87,971
−88,208
−88,44
−88,666
−88,886
−89,098
−89,3
−89,491
−89,67
−89,836
−89,987
−90,122
−90,241
−90,343
−90,426
−90,491
−90,537
−90,564
−90,572
−90,56
−90,529
−90,48
−90,412
−90,328
−90,227
−90,111
−89,98
−89,835
−89,678
−89,51
−89,331
−89,142
−88,946
−88,742
−88,533
−88,32
−88,104
−87,886
−87,669
−87,453
−87,24
−87,031
−86,827
−86,63
−86,44
−86,258
−86,086
−85,923
−85,771
−85,63
−85,499
−85,38
−85,272
−85,175
−85,088
−85,011
−84,944
−84,885
−84,834
−84,791
−84,754
−84,723
−84,697
−84,676
−84,657
−84,642
−84,628
−84,615
−84,602
−84,588
−84,572
−84,554
−84,533
−84,507
−84,478
−84,444
−84,405
−84,361
−84,312
−84,258
−84,198
−84,133
−84,063
−83,989
−83,911
−83,83
−83,746
−83,66
−83,574
−83,489
−83,404
−83,322
−83,244
−83,171
−83,103
−83,042
−82,99
−82,947
−82,915
−82,895
−82,888
−82,895
−82,918
−82,956
−83,011
−83,083
−83,171
−83,278
−83,401
−83,542
−83,701
−83,876
−84,069
−84,278
−84,504
−84,746
−85,002
−85,274
−85,559
−85,856
−86,166
−86,487
−86,817
−87,157
−87,503
−87,855
−88,211
−88,568
−88,926
−89,282
−89,632
−89,976
−90,31
−90,633
−90,943
−91,238
−91,515
−91,773
−92,011
−92,226
−92,418
−92,584
−92,723
−92,833
−92,911
−92,957
−92,967
−92,939
−92,87
−92,758
−92,601
−92,396
−92,142
−91,836
−91,478
−91,066
−90,601
−90,081
−89,504
−88,868
−88,175
−87,423
−86,611
−85,738
−84,804
−83,808
−82,751
−81,634
−80,456
−79,214
−77,903
−76,524
−75,082
−73,583
−72,035
−70,451
−68,845
−67,24
−65,663
−64,141
−62,694
−61,341
−60,094
−58,973
−57,998
−57,19
−56,568
−56,139
−55,902
−55,854
−55,985
−56,272
−56,678
−57,147
−57,612
−58,02
−58,336
−58,539
−58,603
−58,505
−58,219
−57,725
−57,029
−56,149
−55,1
−53,898
−52,563
−51,127
−49,688
−48,375
−47,269
−46,431
−45,879
−45,595
−45,653
−46,142
−47,056
−48,358
−50,071
−52,214
−54,923
−58,425
−62,737
−67,792
−73,573
−80,028
−87,066
−94,588
−102,296
−109,652
−116,279
−121,886
−126,186
−128,996
−130,12
−129,372
−126,815
−122,887
−118,088
−112,946
−108,007
−103,732
−100,689
−99,487
−100,622
−104,361
−110,719
−119,589
−130,158
−140,639
−148,905
−152,646
−151,207
−146,32
−139,297
−129,827
−113,157
−80,242
−23,405
61,182
169,878
293,441
422,763
549,489
668,485
773,385
853,638
898,706
898,728
852,103
766,096
650,732
518,211
376,495
231,624
92,451
−31,963
−131,19
−199,102
−236,852
−249,222
−243,987
−227,057
−202,204
−174,134
−146,283
−121,925
−102,862
−86,888
−72,063
−57,793
−44,636
−35,346
−31,615
−32,782
−37,226
−42,741
−47,626
−51,167
−53,03
−52,93
−50,64
−46,306
−40,391
−33,429
−26,034
−18,718
−11,849
−5,856
−1,125
2,237
4,318
5,315
5,514
5,171
4,479
3,645
2,88
2,296
1,954
1,898
2,121
2,616
3,398
4,468
5,826
7,503
9,509
11,831
14,462
17,373
20,54
23,967
27,656
31,601
35,796
40,221
44,855
49,698
54,744
59,98
65,392
70,943
76,602
82,362
88,214
94,15
100,153
106,182
112,191
118,154
124,059
129,908
135,718
141,488
147,222
152,93
158,624
164,332
170,087
175,906
181,801
187,808
193,969
200,362
207,086
214,204
221,751
229,745
238,181
247,067
256,412
266,21
276,45
287,112
298,177
309,651
321,548
333,845
346,499
359,427
372,507
385,656
398,814
411,919
424,918
437,737
450,29
462,517
474,36
485,748
496,585
506,733
516,029
524,34
531,554
537,579
542,349
545,77
547,73
548,15
546,968
544,145
539,659
533,466
525,511
515,778
504,295
491,141
476,434
460,285
442,802
424,119
404,381
383,768
362,49
340,721
318,611
296,315
273,982
251,793
229,962
208,668
188,059
168,263
149,38
131,515
114,774
99,216
84,857
71,683
59,645
48,717
38,884
30,113
22,359
15,546
9,562
4,308
−0,3
−4,362
−7,975
−11,248
−14,306
−17,229
−20,058
−22,822
−25,524
−28,179
−30,81
−33,423
−36,012
−38,562
−41,041
−43,428
−45,707
−47,849
−49,814
−51,558
−53,024
−54,185
−55,037
−55,583
−55,837
−55,817
−55,535
−55,016
−54,294
−53,401
−52,367
−51,219
−49,977
−48,67
−47,332
−45,997
−44,703
−43,476
−42,333
−41,289
−40,351
−39,525
−38,815
−38,219
−37,729
−37,34
−37,049
−36,855
−36,755
−36,746
−36,822
−36,977
−37,203
−37,495
−37,845
−38,248
−38,698
−39,189
−39,716
−40,276
−40,864
−41,476
−42,108
−42,754
−43,408
−44,066
−44,721
−45,37
−46,007
−46,628
−47,229
−47,807
−48,361
−48,888
−49,386
−49,855
−50,293
−50,701
−51,076
−51,42
−51,733
−52,015
−52,267
−52,49
−52,687
−52,857
−53,003
−53,126
−53,229
−53,314
−53,381
−53,434
−53,474
−53,504
−53,525
−53,539
−53,549
−53,557
−53,565
−53,575
−53,589
−53,609
−53,636
−53,671
−53,717
−53,773
−53,842
−53,923
−54,018
−54,127
−54,251
−54,391
−54,545
−54,716
−54,901
−55,103
−55,319
−55,551
−55,798
−56,059
−56,335
−56,625
−56,929
−57,246
−57,576
−57,919
−58,275
−58,642
−59,02
−59,409
−59,807
−60,216
−60,633
−61,058
−61,491
−61,932
−62,378
−62,831
−63,289
−63,751
−64,217
−64,686
−65,158
−65,63
−66,104
−66,578
−67,052
−67,524
−67,994
−68,461
−68,925
−69,385
−69,839
−70,287
−70,728
−71,16
−71,584
−71,998
−72,401
−72,793
−73,172
−73,539
−73,892
−74,231
−74,555
−74,863
−75,156
−75,433
−75,694
−75,938
−76,166
−76,378
−76,574
−76,754
−76,918
−77,067
−77,202
−77,322
−77,429
−77,523
−77,606
−77,677
−77,739
−77,791
−77,836
−77,874
−77,907
−77,936
−77,962
−77,987
−78,012
−78,039
−78,069
−78,102
−78,141
−78,186
−78,238
−78,298
−78,368
−78,447
−78,536
−78,636
−78,748
−78,87
−79,004
−79,149
−79,306
−79,473
−79,652
−79,84
−80,039
−80,247
−80,463
−80,687
−80,918
−81,155
−81,397
−81,642
−81,89
−82,139
−82,388
−82,636
−82,88
−83,121
−83,357
−83,586
−83,807
−84,02
−84,223
−84,416
−84,598
−84,768
−84,926
−85,072
−85,206
−85,327
−85,436
−85,533
−85,618
−85,692
−85,755
−85,808
−85,852
−85,888
−85,916
−85,937
−85,953
−85,965
−85,973
−85,979
−85,985
−85,991
−85,999
−86,01
−86,026
−86,048
−86,076
−86,112
−86,157
−86,212
−86,277
−86,353
−86,44
−86,538
−86,648
−86,77
−86,902
−87,045
−87,199
−87,361
−87,532
−87,71
−87,894
−88,083
−88,277
−88,473
−88,67
−88,867
−89,062
−89,254
−89,441
−89,622
−89,795
−89,959
−90,111
−90,251
−90,376
−90,487
−90,582
−90,659
−90,718
−90,759
−90,781
−90,785
−90,769
−90,735
−90,683
−90,614
−90,529
−90,43
−90,317
−90,193
−90,059
−89,917
−89,768
−89,616
−89,461
−89,305
−89,151
−89,001
−88,856
−88,719
−88,592
−88,477
−88,377
−88,293
−88,227
−88,182
−88,159
−88,159
−88,184
−88,235
−88,313
−88,418
−88,55
−88,71
−88,896
−89,108
−89,343
−89,601
−89,878
−90,173
−90,483
−90,804
−91,135
−91,471
−91,81
−92,149
−92,483
−92,81
−93,127
−93,428
−93,711
−93,972
−94,205
−94,407
−94,572
−94,695
−94,772
−94,798
−94,768
−94,678
−94,524
−94,301
−94,009
−93,643
−93,203
−92,684
−92,085
−91,404
−90,64
−89,793
−88,862
−87,845
−86,742
−85,554
−84,281
−82,925
−81,487
−79,964
−78,355
−76,66
−74,887
−73,042
−71,135
−69,18
−67,192
−65,192
−63,209
−61,269
−59,396
−57,61
−55,925
−54,36
−52,94
−51,683
−50,607
−49,72
−49,022
−48,508
−48,172
−47,995
−47,949
−47,99
−48,061
−48,117
−48,127
−48,064
−47,915
−47,663
−47,289
−46,786
−46,168
−45,452
−44,668
−43,844
−43,001
−42,18
−41,442
−40,861
−40,526
−40,513
−40,861
−41,597
−42,73
−44,253
−46,163
−48,445
−51,03
−53,827
−56,79
−59,906
−63,253
−66,975
−71,127
−75,708
−80,746
−86,273
−92,283
−98,724
−105,27
−111,365
−116,614
−120,725
−123,487
−124,777
−124,381
−122,092
−118,228
−113,541
−108,567
−103,776
−99,612
−96,268
−94,736
−96,794
−102,681
−111,646
−122,395
−131,295
−136,554
−139,104
−139,277
−140,293
−144,686
−149,894
−152,039
−142,963
−112,104
−52,835
37,676
156,103
294,102
440,887
585,098
716,993
825,25
900,317
935,521
925,836
874,839
789,683
677,278
546,606
402,788
252,123
105,959
−24,122
−126,142
−193,995
−230,16
−240,96
−234,901
−217,92
−193,426
−165,852
−138,769
−115,698
−98,467
−84,463
−71,22
−57,833
−44,889
−35,557
−31,918
−33,504
−38,733
−45,29
−51,382
−56,244
−59,466
−60,689
−59,59
−56,224
−50,98
−44,333
−36,899
−29,243
−21,799
−15,069
−9,484
−5,168
−2,077
−0,07
1,108
1,687
1,874
1,902
1,969
2,166
2,523
3,04
3,702
4,512
5,471
6,564
7,782
9,137
10,669
12,423
14,427
16,687
19,2
21,971
25,021
28,37
32,026
35,984
40,231
44,758
49,568
54,669
60,05
65,688
71,542
77,565
83,719
89,976
96,293
102,616
108,898
115,096
121,196
127,209
133,146
139,016
144,823
150,569
156,265
161,935
167,606
173,304
179,065
184,926
190,953
197,241
203,876
210,931
218,452
226,446
234,919
243,879
253,323
263,249
273,647
284,506
295,828
307,637
319,94
332,723
345,937
359,488
373,28
387,22
401,221
415,216
429,128
442,872
456,374
469,571
482,383
494,719
506,444
517,375
527,337
536,171
543,737
549,932
554,65
557,784
559,254
558,998
556,969
553,142
547,477
539,917
530,441
519,061
505,843
490,921
474,433
456,52
437,349
417,093
395,945
374,126
351,822
329,191
306,389
283,567
260,903
238,611
216,874
195,847
175,662
156,408
138,173
121,046
105,066
90,237
76,532
63,892
52,28
41,68
32,06
23,378
15,567
8,519
2,14
−3,646
−8,93
−13,798
−18,343
−22,674
−26,858
−30,925
−34,889
−38,744
−42,496
−46,163
−49,748
−53,244
−56,636
−59,895
−62,998
−65,936
−68,683
−71,205
−73,462
−75,406
−77,014
−78,285
−79,23
−79,864
−80,209
−80,278
−80,1
−79,709
−79,137
−78,415
−77,569
−76,62
−75,597
−74,532
−73,458
−72,413
−71,422
−70,503
−69,667
−68,926
−68,284
−67,746
−67,31
−66,967
−66,715
−66,549
−66,468
−66,47
−66,551
−66,707
−66,93
−67,215
−67,553
−67,94
−68,37
−68,835
−69,33
−69,849
−70,389
−70,945
−71,514
−72,09
−72,669
−73,244
−73,812
−74,368
−74,908
−75,426
−75,919
−76,385
−76,821
−77,225
−77,598
−77,937
−78,244
−78,518
−78,76
−78,972
−79,154
−79,307
−79,433
−79,533
−79,61
−79,666
−79,702
−79,721
−79,725
−79,718
−79,701
−79,677
−79,648
−79,616
−79,585
−79,555
−79,53
−79,51
−79,499
−79,497
−79,508
−79,532
−79,571
−79,627
−79,7
−79,791
−79,9
−80,027
−80,173
−80,336
−80,517
−80,715
−80,93
−81,161
−81,406
−81,666
−81,94
−82,226
−82,523
−82,831
−83,147
−83,472
−83,803
−84,14
−84,481
−84,826
−85,173
−85,521
−85,869
−86,216
−86,561
−86,902
−87,239
−87,569
−87,893
−88,208
−88,515
−88,812
−89,098
−89,374
−89,637
−89,889
−90,129
−90,356
−90,57
−90,771
−90,959
−91,134
−91,296
−91,444
−91,58
−91,703
−91,813
−91,912
−91,999
−92,074
−92,14
−92,195
−92,24
−92,277
−92,305
−92,326
−92,34
−92,348
−92,352
−92,351
−92,348
−92,344
−92,338
−92,333
−92,329
−92,326
−92,326
−92,329
−92,336
−92,347
−92,363
−92,385
−92,412
−92,446
−92,487
−92,535
−92,59
−92,651
−92,721
−92,797
−92,879
−92,969
−93,064
−93,166
−93,273
−93,384
−93,501
−93,62
−93,743
−93,867
−93,993
−94,118
−94,243
−94,366
−94,487
−94,604
−94,716
−94,824
−94,926
−95,022
−95,111
−95,193
−95,267
−95,332
−95,389
−95,437
−95,476
−95,505
−95,524
−95,534
−95,535
−95,526
−95,508
−95,481
−95,446
−95,402
−95,351
−95,293
−95,228
−95,158
−95,082
−95,002
−94,919
−94,833
−94,745
−94,656
−94,567
−94,477
−94,389
−94,301
−94,215
−94,13
−94,047
−93,967
−93,889
−93,814
−93,742
−93,674
−93,609
−93,547
−93,49
−93,437
−93,388
−93,344
−93,304
−93,27
−93,24
−93,217
−93,198
−93,185
−93,178
−93,176
−93,18
−93,188
−93,201
−93,219
−93,242
−93,27
−93,303
−93,341
−93,384
−93,434
−93,49
−93,554
−93,625
−93,704
−93,792
−93,888
−93,993
−94,107
−94,23
−94,362
−94,502
−94,649
−94,802
−94,961
−95,125
−95,291
−95,458
−95,625
−95,79
−95,952
−96,108
−96,257
−96,397
−96,526
−96,643
−96,745
−96,829
−96,893
−96,933
−96,948
−96,932
−96,882
−96,793
−96,662
−96,485
−96,257
−95,974
−95,634
−95,234
−94,771
−94,243
−93,649
−92,986
−92,253
−91,448
−90,57
−89,617
−88,589
−87,484
−86,302
−85,041
−83,706
−82,295
−80,812
−79,255
−77,625
−75,922
−74,155
−72,333
−70,465
−68,568
−66,657
−64,752
−62,88
−61,064
−59,328
−57,69
−56,168
−54,776
−53,529
−52,44
−51,527
−50,796
−50,245
−49,865
−49,643
−49,559
−49,588
−49,7
−49,853
−50,012
−50,149
−50,246
−50,287
−50,267
−50,185
−50,038
−49,829
−49,568
−49,27
−48,963
−48,683
−48,466
−48,351
−48,375
−48,583
−49,012
−49,683
−50,613
−51,807
−53,25
−54,92
−56,794
−58,844
−61,06
−63,428
−65,897
−68,446
−71,085
−73,867
−76,921
−80,346
−84,187
−88,539
−93,5
−99,054
−105,134
−111,476
−117,556
−122,914
−127,098
−129,549
−129,813
−127,622
−122,81
−115,698
−107,086
−97,725
−88,649
−81,18
−76,503
−75,814
−79,617
−86,85
−95,819
−104,591
−112,216
−119,776
−127,643
−134,733
−136,452
−123,687
−88,659
−25,775
66,004
181,044
313,471
455,854
598,225
729,728
834,835
898,289
911,588
875,038
798,838
697,082
580,667
454,188
318,192
175,825
35,858
−87,376
−179,051
−233,423
−253,792
−250,277
−237,174
−222,173
−207,654
−193,746
−175,936
−153,485
−128,472
−102,013
−78,124
−59,213
−45,316
−36,89
−32,871
−31,754
−32,806
−35,273
−38,427
−41,663
−44,337
−45,743
−45,384
−43,262
−39,609
−34,693
−28,963
−22,862
−16,776
−11,225
−6,676
−3,292
−1,056
0,162
0,621
0,558
0,173
−0,281
−0,552
−0,492
−0,039
0,81
2,005
3,504
5,281
7,305
9,536
11,958
14,575
17,387
20,392
23,583
26,946
30,476
34,179
38,052
42,094
46,307
50,688
55,248
60
64,949
70,101
75,452
80,975
86,651
92,471
98,417
104,47
110,6
116,758
122,911
129,049
135,166
141,267
147,357
153,428
159,479
165,512
171,529
177,543
183,573
189,628
195,736
201,944
208,313
214,93
221,872
229,178
236,876
244,982
253,5
262,441
271,814
281,62
291,876
302,611
313,843
325,588
337,841
350,553
363,659
377,071
390,674
404,378
418,091
431,716
445,172
458,384
471,257
483,697
495,574
506,709
516,931
526,071
533,961
540,472
545,476
548,856
550,543
550,487
548,647
545,007
539,531
532,17
522,909
511,758
498,768
484,056
467,749
449,979
430,915
410,735
389,639
367,855
345,567
322,928
300,095
277,217
254,47
232,065
210,186
188,993
168,631
149,206
130,822
113,583
97,536
82,69
69,023
56,473
45,002
34,592
25,209
16,808
9,317
2,626
−3,364
−8,736
−13,593
−18,032
−22,164
−26,111
−29,951
−33,722
−37,446
−41,119
−44,747
−48,349
−51,925
−55,466
−58,952
−62,351
−65,637
−68,794
−71,788
−74,577
−77,113
−79,335
−81,213
−82,741
−83,921
−84,766
−85,291
−85,51
−85,447
−85,137
−84,609
−83,893
−83,017
−81,999
−80,868
−79,659
−78,405
−77,145
−75,906
−74,705
−73,557
−72,472
−71,457
−70,516
−69,65
−68,851
−68,117
−67,448
−66,842
−66,303
−65,828
−65,414
−65,059
−64,757
−64,507
−64,304
−64,147
−64,032
−63,955
−63,916
−63,912
−63,943
−64,007
−64,101
−64,223
−64,369
−64,537
−64,724
−64,927
−65,142
−65,369
−65,604
−65,846
−66,094
−66,348
−66,607
−66,87
−67,137
−67,408
−67,683
−67,962
−68,243
−68,527
−68,813
−69,101
−69,392
−69,683
−69,977
−70,272
−70,569
−70,868
−71,169
−71,471
−71,776
−72,083
−72,392
−72,703
−73,017
−73,333
−73,652
−73,974
−74,298
−74,625
−74,954
−75,285
−75,617
−75,951
−76,284
−76,617
−76,949
−77,279
−77,607
−77,933
−78,256
−78,577
−78,895
−79,21
−79,522
−79,833
−80,141
−80,448
−80,753
−81,056
−81,359
−81,661
−81,963
−82,264
−82,567
−82,87
−83,174
−83,48
−83,787
−84,096
−84,408
−84,721
−85,038
−85,357
−85,68
−86,007
−86,338
−86,673
−87,012
−87,356
−87,704
−88,056
−88,412
−88,772
−89,134
−89,498
−89,864
−90,23
−90,596
−90,96
−91,322
−91,681
−92,035
−92,384
−92,727
−93,062
−93,388
−93,705
−94,011
−94,306
−94,59
−94,861
−95,118
−95,362
−95,591
−95,805
−96,003
−96,185
−96,351
−96,5
−96,633
−96,748
−96,847
−96,929
−96,996
−97,047
−97,084
−97,108
−97,119
−97,119
−97,109
−97,089
−97,063
−97,031
−96,994
−96,955
−96,915
−96,875
−96,837
−96,802
−96,772
−96,748
−96,73
−96,721
−96,72
−96,73
−96,751
−96,785
−96,831
−96,891
−96,966
−97,056
−97,161
−97,281
−97,418
−97,569
−97,736
−97,918
−98,113
−98,323
−98,544
−98,778
−99,022
−99,275
−99,536
−99,803
−100,076
−100,353
−100,632
−100,913
−101,194
−101,474
−101,753
−102,029
−102,301
−102,57
−102,832
−103,089
−103,339
−103,581
−103,815
−104,041
−104,257
−104,463
−104,66
−104,846
−105,023
−105,19
−105,348
−105,497
−105,638
−105,772
−105,899
−106,02
−106,136
−106,249
−106,359
−106,467
−106,573
−106,679
−106,785
−106,89
−106,996
−107,1
−107,204
−107,307
−107,408
−107,507
−107,603
−107,696
−107,784
−107,866
−107,942
−108,01
−108,068
−108,115
−108,149
−108,167
−108,167
−108,146
−108,1
−108,026
−107,921
−107,78
−107,601
−107,38
−107,114
−106,799
−106,434
−106,016
−105,542
−105,009
−104,413
−103,753
−103,028
−102,233
−101,368
−100,429
−99,415
−98,327
−97,164
−95,925
−94,606
−93,204
−91,719
−90,158
−88,526
−86,833
−85,09
−83,31
−81,514
−79,729
−77,977
−76,278
−74,649
−73,103
−71,657
−70,333
−69,152
−68,127
−67,269
−66,576
−66,043
−65,663
−65,417
−65,271
−65,184
−65,103
−64,986
−64,814
−64,565
−64,226
−63,781
−63,21
−62,508
−61,679
−60,734
−59,686
−58,555
−57,365
−56,157
−55,004
−53,978
−53,159
−52,614
−52,371
−52,453
−52,873
−53,635
−54,741
−56,181
−57,916
−59,896
−62,117
−64,606
−67,434
−70,694
−74,422
−78,619
−83,302
−88,548
−94,381
−100,671
−107,138
−113,357
−118,937
−123,644
−127,244
−129,341
−129,594
−127,934
−124,546
−119,951
−114,768
−109,368
−104,179
−99,967
−97,551
−97,638
−100,703
−106,792
−115,255
−124,786
−133,561
−139,132
−140,421
−138,469
−134,606
−129,466
−119,157
−95,203
−49,009
25,789
127,792
249,739
383,114
517,405
644,824
756,097
838,211
881,408
877,973
828,535
742,58
629,797
500,86
362,948
221,677
86,836
−31,253
−122,321
−181,533
−212,739
−224,135
−225,495
−222,514
−215,742
−203,755
−184,813
−160,06
−132,899
−106,744
−84,518
−67,484
−55,601
−48,561
−45,756
−46,288
−49,175
−53,394
−57,945
−61,991
−64,884
−66,015
−64,913
−61,556
−56,24
−49,413
−41,669
−33,573
−25,619
−18,342
−12,238
−7,527
−4,211
−2,156
−1,103
−0,791
−0,992
−1,459
−1,963
−2,379
−2,647
−2,735
−2,638
−2,35
−1,851
−1,129
−0,165
1,085
2,657
4,565
6,811
9,377
12,248
15,42
18,896
22,668
26,722
31,04
35,6
40,397
45,425
50,662
56,072
61,603
67,215
72,882
78,585
84,298
89,981
95,594
101,109
106,521
111,842
117,086
122,269
127,397
132,482
137,545
142,616
147,735
152,935
158,244
163,694
169,341
175,263
181,544
188,252
195,425
203,074
211,197
219,789
228,848
238,365
248,316
258,682
269,437
280,575
292,108
304,033
316,314
328,882
341,649
354,526
367,454
380,385
393,266
406,045
418,653
431,038
443,157
454,954
466,352
477,23
487,423
496,768
505,131
512,387
518,434
523,165
526,449
528,179
528,276
526,673
523,32
518,15
511,08
502,057
491,075
478,181
463,488
447,122
429,214
409,926
389,439
367,959
345,726
322,949
299,806
276,478
253,15
230,037
207,388
185,426
164,339
144,286
125,39
107,76
91,484
76,591
63,073
50,879
39,936
30,184
21,583
14,072
7,573
1,975
−2,864
−7,072
−10,773
−14,095
−17,162
−20,104
−23,026
−25,987
−29,011
−32,1
−35,245
−38,442
−41,695
−44,987
−48,297
−51,59
−54,823
−57,959
−60,958
−63,77
−66,338
−68,6
−70,515
−72,066
−73,257
−74,103
−74,621
−74,831
−74,757
−74,432
−73,89
−73,162
−72,278
−71,261
−70,142
−68,954
−67,733
−66,517
−65,336
−64,206
−63,142
−62,152
−61,242
−60,415
−59,671
−59,002
−58,406
−57,879
−57,421
−57,033
−56,713
−56,455
−56,258
−56,114
−56,021
−55,976
−55,973
−56,01
−56,083
−56,19
−56,327
−56,494
−56,688
−56,905
−57,143
−57,397
−57,664
−57,941
−58,224
−58,509
−58,794
−59,076
−59,353
−59,624
−59,885
−60,137
−60,378
−60,607
−60,824
−61,028
−61,219
−61,395
−61,558
−61,707
−61,843
−61,966
−62,076
−62,175
−62,263
−62,342
−62,413
−62,477
−62,536
−62,591
−62,644
−62,695
−62,748
−62,802
−62,86
−62,923
−62,992
−63,069
−63,154
−63,25
−63,356
−63,474
−63,604
−63,748
−63,904
−64,075
−64,26
−64,46
−64,674
−64,904
−65,149
−65,409
−65,683
−65,972
−66,275
−66,592
−66,922
−67,264
−67,618
−67,982
−68,356
−68,739
−69,13
−69,527
−69,93
−70,338
−70,748
−71,161
−71,574
−71,987
−72,4
−72,809
−73,216
−73,618
−74,014
−74,404
−74,786
−75,159
−75,522
−75,875
−76,215
−76,543
−76,858
−77,158
−77,444
−77,714
−77,967
−78,205
−78,424
−78,627
−78,811
−78,977
−79,125
−79,254
−79,365
−79,458
−79,532
−79,588
−79,627
−79,648
−79,651
−79,638
−79,609
−79,563
−79,503
−79,428
−79,34
−79,24
−79,128
−79,007
−78,876
−78,738
−78,594
−78,445
−78,292
−78,137
−77,981
−77,826
−77,673
−77,524
−77,381
−77,244
−77,116
−76,998
−76,891
−76,796
−76,715
−76,649
−76,6
−76,568
−76,553
−76,559
−76,584
−76,63
−76,697
−76,785
−76,895
−77,027
−77,179
−77,352
−77,545
−77,757
−77,986
−78,233
−78,495
−78,772
−79,061
−79,361
−79,67
−79,986
−80,308
−80,633
−80,959
−81,284
−81,606
−81,922
−82,23
−82,529
−82,817
−83,09
−83,347
−83,587
−83,807
−84,005
−84,18
−84,33
−84,454
−84,552
−84,621
−84,662
−84,675
−84,659
−84,615
−84,543
−84,443
−84,317
−84,165
−83,989
−83,789
−83,568
−83,327
−83,068
−82,793
−82,505
−82,204
−81,894
−81,577
−81,255
−80,93
−80,604
−80,281
−79,962
−79,649
−79,346
−79,053
−78,774
−78,51
−78,263
−78,035
−77,826
−77,639
−77,475
−77,334
−77,216
−77,123
−77,054
−77,01
−76,991
−76,996
−77,025
−77,077
−77,152
−77,249
−77,366
−77,503
−77,658
−77,83
−78,017
−78,218
−78,432
−78,656
−78,89
−79,131
−79,379
−79,632
−79,887
−80,144
−80,401
−80,657
−80,91
−81,16
−81,406
−81,647
−81,882
−82,111
−82,333
−82,548
−82,756
−82,955
−83,146
−83,327
−83,5
−83,663
−83,816
−83,96
−84,094
−84,218
−84,333
−84,438
−84,535
−84,622
−84,7
−84,77
−84,832
−84,886
−84,932
−84,971
−85,003
−85,027
−85,045
−85,055
−85,058
−85,051
−85,036
−85,01
−84,972
−84,922
−84,858
−84,78
−84,687
−84,578
−84,452
−84,309
−84,149
−83,969
−83,769
−83,548
−83,305
−83,038
−82,748
−82,431
−82,085
−81,711
−81,305
−80,866
−80,393
−79,882
−79,332
−78,743
−78,115
−77,448
−76,741
−75,993
−75,204
−74,375
−73,505
−72,593
−71,638
−70,636
−69,586
−68,491
−67,352
−66,17
−64,943
−63,665
−62,332
−60,947
−59,514
−58,039
−56,531
−55,001
−53,466
−51,954
−50,492
−49,105
−47,813
−46,628
−45,561
−44,625
−43,84
−43,228
−42,81
−42,602
−42,605
−42,808
−43,182
−43,69
−44,281
−44,907
−45,507
−46,009
−46,38
−46,639
−46,864
−47,139
−47,478
−47,797
−48
−48,067
−47,968
−47,603
−46,768
−45,234
−42,982
−40,284
−37,524
−34,947
−32,724
−31,054
−30,267
−30,807
−32,869
−36,236
−40,484
−45,317
−50,626
−56,405
−62,514
−68,594
−74,414
−80,042
−85,731
−91,661
−97,68
−103,351
−108,32
−112,441
−115,62
−117,7
−118,376
−117,344
−114,721
−111,006
−106,693
−102,221
−97,877
−93,918
−90,856
−89,367
−89,898
−92,62
−97,699
−104,779
−112,756
−120,009
−124,286
−124,492
−121,811
−118,119
−114,301
−106,514
−86,097
−43,453
28,963
130,459
254,021
390,776
529,533
662,08
779,085
867,382
916,371
917,365
870,39
785,05
672,318
544,409
408,676
268,792
132,274
7,187
−96,798
−170,28
−212,023
−225,781
−217,625
−197,268
−171,98
−145,844
−122,942
−103,217
−84,636
−66,969
−49,426
−33,364
−22,138
−16,848
−17,512
−22,8
−29,88
−37,02
−43,093
−47,159
−48,875
−47,898
−44,174
−38,225
−30,716
−22,295
−13,665
−5,403
2
8,07
12,661
15,881
17,916
19,034
19,489
19,494
19,302
19,153
19,163
19,369
19,768
20,325
21,049
21,954
23,027
24,246
25,587
27,043
28,63
30,372
32,288
34,381
36,642
39,075
41,7
44,537
47,604
50,908
54,436
58,186
62,167
66,386
70,864
75,604
80,589
85,793
91,184
96,732
102,409
108,173
113,97
119,75
125,483
131,161
136,8
142,412
147,997
153,556
159,087
164,596
170,106
175,641
181,226
186,899
192,709
198,731
205,064
211,8
218,994
226,672
234,839
243,494
252,648
262,301
272,447
283,078
294,185
305,778
317,868
330,447
343,477
356,88
370,55
384,381
398,297
412,228
426,109
439,869
453,429
466,727
479,7
492,274
504,345
515,762
526,359
535,983
544,502
551,805
557,793
562,361
565,395
566,803
566,514
564,47
560,618
554,885
547,207
537,554
525,942
512,447
497,175
480,241
461,778
441,947
420,931
398,945
376,218
352,951
329,331
305,547
281,796
258,308
235,317
213,033
191,645
171,314
152,183
134,385
118,019
103,128
89,718
77,753
67,173
57,934
49,99
43,282
37,74
33,267
29,746
27,053
25,055
23,604
22,542
21,706
20,952
20,173
19,293
18,267
17,068
15,676
14,068
12,227
10,134
7,768
5,132
2,241
−0,871
−4,15
−7,521
−10,899
−14,199
−17,341
−20,271
−22,96
−25,392
−27,569
−29,491
−31,156
−32,556
−33,676
−34,508
−35,056
−35,332
−35,358
−35,17
−34,815
−34,348
−33,836
−33,328
−32,855
−32,437
−32,083
−31,796
−31,587
−31,46
−31,426
−31,492
−31,661
−31,939
−32,327
−32,82
−33,408
−34,07
−34,778
−35,51
−36,253
−36,995
−37,73
−38,455
−39,163
−39,854
−40,528
−41,183
−41,818
−42,43
−43,012
−43,562
−44,079
−44,566
−45,025
−45,46
−45,873
−46,266
−46,64
−46,997
−47,339
−47,665
−47,975
−48,266
−48,542
−48,802
−49,05
−49,286
−49,514
−49,736
−49,954
−50,171
−50,39
−50,614
−50,843
−51,079
−51,325
−51,583
−51,853
−52,137
−52,437
−52,753
−53,086
−53,437
−53,807
−54,196
−54,603
−55,027
−55,47
−55,928
−56,402
−56,891
−57,392
−57,905
−58,429
−58,962
−59,503
−60,05
−60,602
−61,157
−61,713
−62,268
−62,821
−63,369
−63,91
−64,443
−64,967
−65,478
−65,977
−66,46
−66,928
−67,378
−67,809
−68,221
−68,612
−68,982
−69,33
−69,656
−69,96
−70,241
−70,5
−70,738
−70,954
−71,15
−71,326
−71,484
−71,623
−71,746
−71,853
−71,946
−72,026
−72,093
−72,15
−72,197
−72,237
−72,27
−72,297
−72,321
−72,342
−72,362
−72,383
−72,405
−72,43
−72,46
−72,495
−72,537
−72,588
−72,647
−72,717
−72,798
−72,89
−72,995
−73,112
−73,242
−73,385
−73,541
−73,711
−73,893
−74,088
−74,296
−74,516
−74,747
−74,99
−75,243
−75,507
−75,781
−76,064
−76,356
−76,657
−76,966
−77,282
−77,606
−77,936
−78,272
−78,615
−78,962
−79,313
−79,668
−80,027
−80,388
−80,752
−81,118
−81,485
−81,853
−82,223
−82,594
−82,966
−83,34
−83,715
−84,091
−84,47
−84,851
−85,235
−85,622
−86,013
−86,408
−86,808
−87,214
−87,625
−88,042
−88,466
−88,896
−89,332
−89,775
−90,225
−90,681
−91,145
−91,615
−92,093
−92,577
−93,068
−93,566
−94,07
−94,581
−95,097
−95,619
−96,145
−96,676
−97,209
−97,746
−98,284
−98,823
−99,361
−99,897
−100,43
−100,958
−101,479
−101,993
−102,497
−102,991
−103,472
−103,939
−104,392
−104,828
−105,248
−105,649
−106,032
−106,394
−106,736
−107,057
−107,356
−107,633
−107,887
−108,118
−108,326
−108,512
−108,674
−108,814
−108,932
−109,028
−109,101
−109,154
−109,186
−109,199
−109,193
−109,169
−109,13
−109,076
−109,009
−108,93
−108,841
−108,743
−108,638
−108,527
−108,412
−108,294
−108,174
−108,054
−107,934
−107,816
−107,7
−107,588
−107,479
−107,375
−107,275
−107,181
−107,091
−107,007
−106,929
−106,856
−106,789
−106,729
−106,674
−106,627
−106,586
−106,551
−106,524
−106,503
−106,488
−106,48
−106,478
−106,482
−106,492
−106,508
−106,529
−106,556
−106,587
−106,624
−106,666
−106,713
−106,766
−106,823
−106,886
−106,955
−107,032
−107,116
−107,209
−107,31
−107,422
−107,545
−107,678
−107,823
−107,98
−108,149
−108,329
−108,521
−108,723
−108,936
−109,158
−109,389
−109,627
−109,871
−110,119
−110,371
−110,623
−110,876
−111,125
−111,371
−111,609
−111,839
−112,058
−112,262
−112,449
−112,614
−112,755
−112,866
−112,943
−112,982
−112,979
−112,928
−112,827
−112,672
−112,46
−112,189
−111,855
−111,456
−110,989
−110,45
−109,838
−109,15
−108,383
−107,534
−106,603
−105,588
−104,489
−103,305
−102,034
−100,673
−99,217
−97,667
−96,026
−94,3
−92,497
−90,63
−88,715
−86,773
−84,833
−82,918
−81,049
−79,244
−77,521
−75,9
−74,41
−73,073
−71,91
−70,932
−70,143
−69,54
−69,12
−68,864
−68,739
−68,704
−68,701
−68,69
−68,652
−68,562
−68,406
−68,155
−67,763
−67,21
−66,502
−65,659
−64,72
−63,722
−62,673
−61,628
−60,69
−59,935
−59,438
−59,201
−59,115
−59,153
−59,377
−59,861
−60,7
−62,007
−63,831
−66,329
−69,84
−74,512
−80,314
−87,135
−94,656
−102,535
−110,546
−118,322
−125,26
−131,015
−135,422
−138,323
−139,856
−140,192
−139,38
−137,703
−135,704
−133,654
−131,607
−129,797
−128,332
−127,203
−126,436
−125,859
−124,968
−124,075
−124,465
−126,229
−128,933
−131,43
−131,067
−127,961
−124,19
−121,335
−121,626
−124,744
−127,942
−128,899
−124,18
−108,533
−76,509
−22,721
57
160,488
281,961
414,848
548,603
674,707
783,933
862,849
903,197
899,188
849,757
762,831
645,422
504,94
350,482
190,404
37,819
−92,54
−190,333
−251,636
−280,705
−286,386
−277,063
−257,781
−231,386
−201,298
−171,013
−144,364
−123,304
−105,74
−89,668
−74,342
−60,412
−50,845
−47,292
−48,971
−54,244
−60,777
−66,644
−71,015
−73,311
−73,032
−70,145
−65
−58,14
−50,236
−42,007
−34,019
−26,823
−21,006
−16,802
−14,164
−12,914
−12,727
−13,268
−14,281
−15,502
−16,658
−17,609
−18,279
−18,612
−18,628
−18,337
−17,73
−16,816
−15,591
−14,02
−12,088
−9,806
−7,185
−4,258
−1,053
2,426
6,168
10,158
14,375
18,791
23,39
28,175
33,143
38,281
43,556
48,919
54,335
59,785
65,252
70,706
76,104
81,398
86,56
91,582
96,472
101,241
105,901
110,456
114,918
119,313
123,676
128,057
132,496
137,037
141,731
146,654
151,906
157,586
163,783
170,552
177,921
185,903
194,502
203,721
213,552
223,976
234,967
246,494
258,532
271,061
284,047
297,433
311,125
325,016
338,996
352,977
366,893
380,692
394,319
407,713
420,814
433,566
445,914
457,799
469,136
479,812
489,708
498,712
506,731
513,692
519,52
524,129
527,421
529,291
529,657
528,463
525,655
521,18
514,987
507,03
497,305
485,861
472,769
458,123
442,03
424,602
405,979
386,331
365,842
344,708
323,108
301,195
279,139
257,12
235,331
213,98
193,246
173,272
154,189
136,109
119,117
103,275
88,604
75,082
62,674
51,335
41,023
31,706
23,332
15,828
9,105
3,053
−2,436
−7,461
−12,129
−16,554
−20,821
−24,995
−29,112
−33,173
−37,178
−41,123
−45,003
−48,813
−52,542
−56,17
−59,672
−63,021
−66,181
−69,119
−71,788
−74,135
−76,126
−77,743
−78,985
−79,87
−80,416
−80,645
−80,582
−80,26
−79,71
−78,963
−78,047
−76,985
−75,807
−74,544
−73,231
−71,906
−70,6
−69,333
−68,123
−66,98
−65,91
−64,921
−64,012
−63,179
−62,42
−61,732
−61,115
−60,57
−60,096
−59,691
−59,35
−59,068
−58,841
−58,665
−58,536
−58,451
−58,405
−58,395
−58,418
−58,475
−58,56
−58,673
−58,809
−58,965
−59,137
−59,322
−59,517
−59,718
−59,924
−60,13
−60,337
−60,541
−60,743
−60,941
−61,134
−61,322
−61,504
−61,681
−61,852
−62,018
−62,179
−62,333
−62,483
−62,628
−62,769
−62,906
−63,039
−63,169
−63,297
−63,422
−63,546
−63,668
−63,789
−63,909
−64,027
−64,145
−64,262
−64,378
−64,493
−64,609
−64,723
−64,837
−64,951
−65,064
−65,176
−65,287
−65,397
−65,506
−65,614
−65,721
−65,827
−65,932
−66,038
−66,143
−66,248
−66,354
−66,461
−66,57
−66,681
−66,795
−66,912
−67,033
−67,159
−67,291
−67,428
−67,572
−67,724
−67,883
−68,051
−68,228
−68,414
−68,609
−68,814
−69,029
−69,253
−69,486
−69,728
−69,978
−70,236
−70,501
−70,772
−71,048
−71,327
−71,61
−71,893
−72,177
−72,459
−72,738
−73,013
−73,282
−73,544
−73,797
−74,04
−74,271
−74,49
−74,694
−74,884
−75,057
−75,213
−75,351
−75,471
−75,571
−75,652
−75,714
−75,755
−75,777
−75,779
−75,762
−75,727
−75,674
−75,604
−75,518
−75,418
−75,304
−75,179
−75,043
−74,897
−74,745
−74,587
−74,424
−74,259
−74,093
−73,926
−73,762
−73,6
−73,442
−73,29
−73,143
−73,003
−72,87
−72,746
−72,629
−72,521
−72,421
−72,33
−72,247
−72,173
−72,106
−72,046
−71,994
−71,947
−71,906
−71,87
−71,838
−71,81
−71,783
−71,758
−71,734
−71,709
−71,683
−71,654
−71,622
−71,586
−71,545
−71,499
−71,447
−71,389
−71,325
−71,255
−71,18
−71,099
−71,014
−70,926
−70,835
−70,743
−70,651
−70,559
−70,47
−70,385
−70,304
−70,23
−70,163
−70,103
−70,053
−70,013
−69,983
−69,965
−69,958
−69,963
−69,981
−70,012
−70,057
−70,114
−70,184
−70,267
−70,362
−70,468
−70,585
−70,71
−70,841
−70,976
−71,111
−71,244
−71,369
−71,483
−71,582
−71,662
−71,719
−71,747
−71,745
−71,708
−71,633
−71,515
−71,35
−71,133
−70,862
−70,531
−70,137
−69,676
−69,142
−68,532
−67,845
−67,077
−66,224
−65,282
−64,244
−63,107
−61,873
−60,547
−59,134
−57,644
−56,09
−54,489
−52,865
−51,242
−49,64
−48,076
−46,563
−45,118
−43,762
−42,515
−41,394
−40,411
−39,563
−38,848
−38,26
−37,779
−37,378
−37,02
−36,654
−36,239
−35,748
−35,161
−34,471
−33,665
−32,727
−31,652
−30,448
−29,131
−27,733
−26,288
−24,826
−23,399
−22,077
−20,93
−20,045
−19,489
−19,3
−19,517
−20,153
−21,211
−22,698
−24,594
−26,86
−29,462
−32,346
−35,434
−38,705
−42,153
−45,79
−49,682
−53,859
−58,316
−63,099
−68,296
−73,92
−79,861
−85,871
−91,568
−96,629
−100,88
−104,123
−106,033
−106,351
−105,048
−102,317
−98,615
−94,447
−90,105
−85,922
−82,489
−80,469
−80,436
−82,796
−87,712
−94,586
−102,09
−108,787
−112,739
−113,228
−111,619
−108,227
−102,321
−90,396
−64,776
−19,525
49,074
141,31
252,002
376,164
506,807
634,44
749,135
836,756
885,533
889,422
847,597
767,697
658,96
529,144
385,953
236,249
90,242
−38,462
−137,672
−201,378
−232,131
−239,734
−236,288
−228,979
−219,596
−206,334
−186,027
−159,202
−129,134
−99,511
−73,99
−54,163
−39,957
−31,042
−26,732
−26,081
−28,117
−31,786
−36,026
−39,941
−42,836
−44,078
−43,174
−40,108
−35,195
−28,866
−21,677
−14,173
−6,807
−0,088
5,495
9,755
12,722
14,526
15,427
15,675
15,48
15,099
14,786
14,682
14,86
15,338
16,073
17,041
18,224
19,585
21,101
22,763
24,573
26,56
28,744
31,128
33,718
36,509
39,501
42,695
46,077
49,637
53,378
57,304
61,432
65,78
70,339
75,095
80,025
85,087
90,244
95,457
100,666
105,826
110,911
115,908
120,83
125,698
130,518
135,297
140,041
144,75
149,45
154,171
158,936
163,789
168,786
174
179,541
185,508
191,968
198,959
206,49
214,554
223,159
232,307
241,986
252,187
262,888
274,071
285,743
297,898
310,5
323,485
336,744
350,157
363,636
377,112
390,525
403,816
416,905
429,711
442,17
454,215
465,775
476,754
487,008
496,388
504,766
512,032
518,108
522,926
526,398
528,425
528,926
527,843
525,142
520,803
514,793
507,078
497,637
486,489
473,709
459,4
443,672
426,634
408,403
389,111
368,922
348,021
326,58
304,747
282,659
260,45
238,274
216,307
194,735
173,713
153,365
133,798
115,107
97,388
80,724
65,157
50,69
37,298
24,957
13,655
3,383
−5,884
−14,191
−21,613
−28,249
−34,187
−39,506
−44,298
−48,653
−52,675
−56,465
−60,092
−63,586
−66,968
−70,248
−73,446
−76,584
−79,673
−82,706
−85,671
−88,542
−91,3
−93,93
−96,403
−98,686
−100,738
−102,512
−103,988
−105,166
−106,053
−106,665
−107,017
−107,124
−107,009
−106,705
−106,239
−105,64
−104,932
−104,135
−103,274
−102,38
−101,485
−100,622
−99,814
−99,076
−98,417
−97,847
−97,366
−96,979
−96,68
−96,464
−96,323
−96,256
−96,26
−96,333
−96,472
−96,671
−96,926
−97,229
−97,574
−97,957
−98,373
−98,817
−99,284
−99,771
−100,275
−100,796
−101,33
−101,876
−102,43
−102,989
−103,55
−104,111
−104,67
−105,223
−105,77
−106,308
−106,837
−107,358
−107,87
−108,373
−108,868
−109,355
−109,836
−110,31
−110,777
−111,24
−111,697
−112,15
−112,6
−113,047
−113,491
−113,935
−114,377
−114,82
−115,262
−115,705
−116,148
−116,591
−117,034
−117,476
−117,919
−118,361
−118,801
−119,241
−119,68
−120,117
−120,552
−120,985
−121,415
−121,841
−122,264
−122,682
−123,096
−123,504
−123,908
−124,306
−124,699
−125,088
−125,471
−125,85
−126,224
−126,594
−126,96
−127,323
−127,682
−128,039
−128,395
−128,748
−129,102
−129,455
−129,81
−130,165
−130,523
−130,882
−131,244
−131,609
−131,977
−132,348
−132,723
−133,101
−133,482
−133,865
−134,251
−134,638
−135,027
−135,415
−135,803
−136,188
−136,57
−136,949
−137,321
−137,688
−138,047
−138,398
−138,739
−139,07
−139,389
−139,695
−139,989
−140,268
−140,533
−140,783
−141,017
−141,234
−141,436
−141,622
−141,791
−141,944
−142,081
−142,203
−142,308
−142,399
−142,476
−142,54
−142,591
−142,631
−142,66
−142,682
−142,695
−142,703
−142,706
−142,705
−142,702
−142,697
−142,693
−142,689
−142,687
−142,687
−142,69
−142,696
−142,706
−142,721
−142,739
−142,762
−142,788
−142,818
−142,852
−142,889
−142,929
−142,972
−143,017
−143,064
−143,114
−143,164
−143,214
−143,265
−143,315
−143,363
−143,408
−143,45
−143,488
−143,52
−143,547
−143,568
−143,582
−143,588
−143,588
−143,58
−143,565
−143,543
−143,515
−143,481
−143,442
−143,398
−143,351
−143,301
−143,25
−143,198
−143,146
−143,095
−143,045
−142,997
−142,951
−142,906
−142,863
−142,822
−142,784
−142,747
−142,712
−142,68
−142,648
−142,619
−142,59
−142,561
−142,531
−142,498
−142,462
−142,42
−142,369
−142,306
−142,228
−142,132
−142,014
−141,87
−141,697
−141,49
−141,245
−140,96
−140,632
−140,257
−139,831
−139,35
−138,81
−138,209
−137,543
−136,808
−136
−135,115
−134,149
−133,102
−131,971
−130,751
−129,439
−128,028
−126,515
−124,903
−123,197
−121,401
−119,527
−117,585
−115,593
−113,577
−111,559
−109,559
−107,596
−105,682
−103,833
−102,072
−100,417
−98,886
−97,489
−96,226
−95,092
−94,083
−93,181
−92,36
−91,584
−90,802
−89,974
−89,072
−88,075
−86,971
−85,751
−84,4
−82,913
−81,299
−79,579
−77,785
−75,957
−74,133
−72,359
−70,704
−69,239
−68,05
−67,214
−66,783
−66,794
−67,263
−68,189
−69,573
−71,398
−73,633
−76,224
−79,074
−82,122
−85,35
−88,774
−92,456
−96,429
−100,638
−105,076
−109,798
−114,773
−119,947
−125,157
−129,995
−134,157
−137,543
−139,992
−141,385
−141,702
−140,781
−138,635
−135,708
−132,313
−128,612
−124,906
−121,343
−118,117
−115,813
−114,978
−115,857
−118,757
−123,982
−131,006
−138,571
−145,179
−148,633
−148,245
−145,404
−140,596
−133,195
−118,597
−88,465
−36,131
42,305
144,117
262,062
389,302
517,508
640,175
748,336
828,328
869,166
862,442
808,617
717,234
598,829
464,42
320,925
174,474
34,763
−87,53
−180,029
−236,861
−260,09
−255,473
−234,45
−205,426
−174,163
−147,682
−127,069
−112,528
−102,866
−92,15
−78,636
−63,057
−47,004
−34,97
−28,735
−27,269
−29,264
−32,636
−36
−39,005
−41,24
−42,228
−41,586
−39,251
−35,473
−30,599
−25,101
−19,421
−13,944
−9,16
−5,487
−3,045
−1,759
−1,455
−1,86
−2,74
−3,907
−5,116
−6,131
−6,818
−7,092
−6,923
−6,322
−5,27
−3,749
−1,777
0,62
3,407
6,545
10,01
13,777
17,807
22,072
26,54
31,186
35,998
40,954
46,034
51,21
56,44
61,695
66,961
72,221
77,462
82,672
87,82
92,896
97,902
102,838
107,711
112,528
117,286
122,001
126,698
131,415
136,196
141,079
146,087
151,258
156,639
162,286
168,264
174,614
181,364
188,543
196,182
204,311
212,944
222,077
231,678
241,712
252,145
262,95
274,104
285,565
297,279
309,192
321,258
333,462
345,789
358,203
370,655
383,089
395,471
407,785
420,023
432,161
444,157
455,954
467,502
478,768
489,701
500,235
510,26
519,623
528,178
535,797
542,364
547,765
551,864
554,509
555,574
554,975
552,647
548,543
542,599
534,739
524,925
513,163
499,512
484,088
467,012
448,41
428,441
407,283
385,154
362,296
338,919
315,199
291,315
267,45
243,821
220,676
198,226
176,656
156,12
136,744
118,647
101,924
86,616
72,72
60,195
48,976
39,016
30,283
22,721
16,255
10,775
6,141
2,224
−1,099
−3,962
−6,496
−8,844
−11,123
−13,4
−15,712
−18,07
−20,479
−22,948
−25,488
−28,095
−30,75
−33,427
−36,084
−38,691
−41,208
−43,585
−45,763
−47,674
−49,272
−50,539
−51,475
−52,093
−52,406
−52,43
−52,187
−51,709
−51,025
−50,166
−49,158
−48,022
−46,786
−45,483
−44,147
−42,817
−41,52
−40,272
−39,085
−37,962
−36,909
−35,925
−35,005
−34,139
−33,319
−32,541
−31,801
−31,098
−30,428
−29,785
−29,163
−28,556
−27,96
−27,37
−26,784
−26,197
−25,608
−25,016
−24,422
−23,825
−23,228
−22,63
−22,031
−21,43
−20,829
−20,228
−19,627
−19,028
−18,432
−17,84
−17,257
−16,684
−16,125
−15,583
−15,062
−14,564
−14,093
−13,652
−13,244
−12,871
−12,536
−12,241
−11,989
−11,781
−11,618
−11,503
−11,436
−11,418
−11,45
−11,532
−11,664
−11,844
−12,074
−12,351
−12,675
−13,044
−13,457
−13,912
−14,408
−14,942
−15,512
−16,117
−16,753
−17,417
−18,108
−18,823
−19,558
−20,313
−21,084
−21,869
−22,667
−23,475
−24,293
−25,118
−25,95
−26,786
−27,627
−28,471
−29,318
−30,166
−31,016
−31,868
−32,72
−33,573
−34,427
−35,282
−36,137
−36,992
−37,847
−38,702
−39,557
−40,412
−41,266
−42,12
−42,973
−43,824
−44,674
−45,522
−46,366
−47,207
−48,044
−48,874
−49,698
−50,513
−51,32
−52,115
−52,898
−53,668
−54,422
−55,159
−55,878
−56,577
−57,254
−57,909
−58,54
−59,146
−59,726
−60,28
−60,806
−61,304
−61,774
−62,216
−62,629
−63,015
−63,372
−63,702
−64,005
−64,282
−64,534
−64,761
−64,966
−65,149
−65,311
−65,455
−65,581
−65,692
−65,79
−65,875
−65,951
−66,019
−66,081
−66,139
−66,196
−66,251
−66,309
−66,369
−66,434
−66,504
−66,582
−66,667
−66,761
−66,863
−66,976
−67,098
−67,229
−67,371
−67,521
−67,68
−67,846
−68,021
−68,201
−68,387
−68,576
−68,769
−68,964
−69,159
−69,352
−69,543
−69,729
−69,909
−70,08
−70,242
−70,392
−70,529
−70,65
−70,754
−70,839
−70,903
−70,946
−70,965
−70,96
−70,929
−70,872
−70,787
−70,675
−70,535
−70,368
−70,172
−69,949
−69,699
−69,423
−69,121
−68,794
−68,444
−68,071
−67,677
−67,264
−66,834
−66,387
−65,926
−65,453
−64,97
−64,479
−63,983
−63,485
−62,985
−62,488
−61,995
−61,51
−61,034
−60,571
−60,122
−59,691
−59,278
−58,887
−58,52
−58,177
−57,861
−57,572
−57,312
−57,082
−56,882
−56,713
−56,574
−56,467
−56,39
−56,344
−56,327
−56,339
−56,378
−56,444
−56,534
−56,648
−56,783
−56,937
−57,109
−57,295
−57,494
−57,703
−57,92
−58,141
−58,364
−58,585
−58,803
−59,014
−59,215
−59,405
−59,58
−59,738
−59,878
−59,997
−60,094
−60,168
−60,218
−60,242
−60,241
−60,213
−60,161
−60,083
−59,981
−59,856
−59,709
−59,541
−59,356
−59,154
−58,938
−58,71
−58,473
−58,229
−57,981
−57,733
−57,487
−57,248
−57,018
−56,802
−56,604
−56,426
−56,273
−56,147
−56,053
−55,993
−55,97
−55,987
−56,046
−56,149
−56,299
−56,495
−56,739
−57,032
−57,372
−57,76
−58,195
−58,674
−59,197
−59,761
−60,363
−61,001
−61,672
−62,371
−63,097
−63,843
−64,606
−65,38
−66,161
−66,941
−67,716
−68,476
−69,216
−69,927
−70,603
−71,237
−71,82
−72,347
−72,812
−73,208
−73,532
−73,776
−73,936
−74,005
−73,978
−73,85
−73,615
−73,268
−72,805
−72,222
−71,517
−70,688
−69,732
−68,645
−67,425
−66,066
−64,566
−62,93
−61,161
−59,268
−57,263
−55,166
−52,998
−50,791
−48,568
−46,353
−44,168
−42,03
−39,965
−37,995
−36,141
−34,423
−32,857
−31,445
−30,191
−29,09
−28,121
−27,258
−26,463
−25,683
−24,884
−24,041
−23,131
−22,137
−21,039
−19,809
−18,44
−16,941
−15,335
−13,668
−11,989
−10,326
−8,745
−7,341
−6,184
−5,338
−4,806
−4,486
−4,305
−4,293
−4,489
−4,955
−5,832
−7,215
−9,283
−12,426
−16,944
−22,916
−30,282
−38,743
−47,796
−57,063
−66,054
−73,999
−80,247
−84,328
−85,986
−85,439
−83,181
−79,537
−74,984
−70,198
−65,704
−62,039
−59,602
−58,307
−57,886
−58,224
−59,064
−60,233
−61,848
−63,849
−66,324
−69,713
−74,359
−80,616
−88,206
−95,427
−100,245
−100,697
−96,32
−88,94
−79,589
−67,325
−47,497
−12,043
46,169
130,933
240,506
368,877
506,749
642,945
766,579
864,118
924,301
941,037
911,823
843,321
744,723
621,907
482,404
332,303
180,256
43,044
−64,889
−136,307
−171,464
−181,571
−178,998
−168,962
−153,426
−131,572
−103,872
−76,151
−53,921
−39,368
−31,087
−25,294
−19,397
−13,308
−9,071
−8,12
−10,081
−13,779
−17,381
−19,77
−20,822
−20,511
−18,841
−15,808
−11,532
−6,275
−0,42
5,662
11,714
17,49
22,698
27,057
30,451
32,901
34,532
35,537
36,079
36,314
36,409
36,524
36,758
37,142
37,69
38,397
39,26
40,274
41,437
42,742
44,205
45,869
47,754
49,868
52,211
54,774
57,557
60,577
63,836
67,332
71,063
75,016
79,184
83,575
88,174
92,949
97,861
102,85
107,868
112,884
117,865
122,773
127,587
132,285
136,862
141,335
145,713
150,015
154,266
158,483
162,696
166,958
171,319
175,845
180,606
185,652
191,034
196,813
203,026
209,698
216,843
224,446
232,49
240,95
249,79
258,976
268,468
278,209
288,144
298,219
308,375
318,585
328,817
339,027
349,183
359,255
369,222
379,072
388,79
398,354
407,734
416,902
425,829
434,489
442,839
450,814
458,323
465,239
471,433
476,78
481,149
484,406
486,407
487,027
486,163
483,737
479,696
473,979
466,525
457,289
446,262
433,472
419
402,958
385,471
366,691
346,793
325,978
304,471
282,478
260,175
237,724
215,28
193,017
171,135
149,815
129,207
109,442
90,618
72,819
56,132
40,594
26,205
12,934
0,717
−10,494
−20,726
−30,016
−38,408
−45,97
−52,802
−58,996
−64,624
−69,772
−74,52
−78,96
−83,195
−87,291
−91,277
−95,168
−98,957
−102,648
−106,256
−109,784
−113,226
−116,566
−119,779
−122,845
−125,757
−128,491
−131,019
−133,304
−135,298
−136,98
−138,349
−139,414
−140,19
−140,696
−140,944
−140,96
−140,776
−140,42
−139,92
−139,301
−138,579
−137,78
−136,931
−136,064
−135,211
−134,396
−133,633
−132,932
−132,303
−131,75
−131,273
−130,872
−130,538
−130,266
−130,053
−129,896
−129,794
−129,743
−129,737
−129,771
−129,839
−129,933
−130,05
−130,185
−130,331
−130,484
−130,642
−130,801
−130,96
−131,115
−131,264
−131,405
−131,533
−131,647
−131,743
−131,82
−131,875
−131,908
−131,918
−131,906
−131,87
−131,814
−131,737
−131,642
−131,531
−131,406
−131,269
−131,122
−130,968
−130,81
−130,649
−130,49
−130,333
−130,183
−130,04
−129,908
−129,789
−129,683
−129,594
−129,522
−129,469
−129,436
−129,423
−129,431
−129,462
−129,514
−129,589
−129,687
−129,806
−129,946
−130,106
−130,286
−130,483
−130,696
−130,923
−131,163
−131,413
−131,671
−131,935
−132,204
−132,474
−132,744
−133,012
−133,275
−133,531
−133,779
−134,018
−134,245
−134,461
−134,663
−134,85
−135,023
−135,181
−135,323
−135,449
−135,558
−135,651
−135,728
−135,79
−135,836
−135,867
−135,883
−135,887
−135,878
−135,858
−135,828
−135,788
−135,74
−135,685
−135,624
−135,56
−135,492
−135,423
−135,353
−135,285
−135,219
−135,156
−135,098
−135,044
−134,995
−134,953
−134,917
−134,886
−134,863
−134,845
−134,834
−134,828
−134,827
−134,831
−134,839
−134,85
−134,864
−134,879
−134,895
−134,91
−134,923
−134,934
−134,941
−134,943
−134,939
−134,928
−134,909
−134,879
−134,839
−134,786
−134,72
−134,64
−134,543
−134,43
−134,299
−134,15
−133,982
−133,795
−133,589
−133,363
−133,118
−132,853
−132,568
−132,266
−131,945
−131,606
−131,251
−130,881
−130,496
−130,097
−129,685
−129,262
−128,829
−128,386
−127,936
−127,478
−127,014
−126,546
−126,075
−125,602
−125,128
−124,655
−124,184
−123,716
−123,253
−122,796
−122,345
−121,903
−121,469
−121,045
−120,631
−120,229
−119,839
−119,461
−119,095
−118,742
−118,403
−118,076
−117,762
−117,461
−117,172
−116,895
−116,631
−116,379
−116,139
−115,911
−115,694
−115,489
−115,296
−115,113
−114,942
−114,782
−114,632
−114,493
−114,364
−114,245
−114,136
−114,035
−113,944
−113,862
−113,788
−113,721
−113,662
−113,61
−113,564
−113,523
−113,489
−113,459
−113,434
−113,412
−113,395
−113,381
−113,369
−113,359
−113,35
−113,342
−113,333
−113,323
−113,31
−113,293
−113,271
−113,243
−113,208
−113,164
−113,11
−113,044
−112,966
−112,874
−112,768
−112,645
−112,505
−112,348
−112,172
−111,977
−111,763
−111,53
−111,277
−111,006
−110,715
−110,406
−110,078
−109,734
−109,372
−108,995
−108,604
−108,198
−107,781
−107,353
−106,916
−106,472
−106,022
−105,57
−105,118
−104,667
−104,221
−103,782
−103,353
−102,936
−102,535
−102,151
−101,787
−101,446
−101,13
−100,84
−100,578
−100,346
−100,145
−99,975
−99,837
−99,731
−99,657
−99,615
−99,604
−99,623
−99,671
−99,747
−99,849
−99,976
−100,126
−100,295
−100,482
−100,684
−100,896
−101,115
−101,336
−101,554
−101,764
−101,96
−102,137
−102,29
−102,414
−102,503
−102,553
−102,559
−102,519
−102,427
−102,279
−102,073
−101,802
−101,465
−101,058
−100,575
−100,016
−99,374
−98,649
−97,839
−96,939
−95,948
−94,861
−93,672
−92,382
−90,99
−89,501
−87,919
−86,256
−84,526
−82,752
−80,958
−79,167
−77,401
−75,681
−74,025
−72,457
−70,999
−69,672
−68,494
−67,473
−66,619
−65,934
−65,418
−65,055
−64,808
−64,63
−64,47
−64,289
−64,058
−63,765
−63,368
−62,817
−62,126
−61,304
−60,383
−59,439
−58,448
−57,374
−56,288
−55,256
−54,278
−53,434
−52,683
−51,893
−51,195
−50,712
−50,487
−50,707
−51,52
−52,903
−55,057
−58,268
−62,469
−67,645
−73,653
−80,01
−86,435
−92,886
−99,138
−104,944
−110,25
−114,862
−118,886
−122,809
−126,812
−130,751
−134,405
−137,458
−139,626
−140,816
−140,683
−138,635
−134,385
−128,062
−120,169
−111,478
−102,784
−94,819
−88,49
−84,779
−84,569
−88,408
−96,29
−107,909
−121,988
−136,194
−148,203
−155,463
−156,789
−152,989
−143,803
−127,827
−101,117
−57,293
8,256
97,434
207,736
333,633
468,03
602,013
726,714
830,031
899,768
927,609
908,449
846,457
750,514
628,822
490,936
342,872
191,772
50,143
−69,804
−157,1
−207,894
−228,644
−230,067
−222,988
−213,237
−200,696
−183,222
−159,244
−130,421
−100,467
−72,811
−50,272
−33,896
−23,506
−18,713
−18,551
−21,681
−26,932
−33,26
−39,522
−44,825
−48,407
−49,517
−48,018
−44,276
−38,747
−31,987
−24,633
−17,182
−10,171
−4,181
0,581
4,172
6,739
8,557
9,89
10,925
11,897
13,051
14,5
16,286
18,404
20,799
23,428
26,257
29,232
32,303
35,429
38,583
41,749
44,922
48,113
51,349
54,659
58,071
61,609
65,28
69,098
73,073
77,219
81,555
86,092
90,83
95,777
100,939
106,304
111,856
117,551
123,31
129,076
134,805
140,455
146,016
151,478
156,835
162,104
167,306
172,459
177,594
182,731
187,89
193,117
198,462
203,987
209,788
215,945
222,531
229,627
237,279
245,512
254,341
263,744
273,694
284,176
295,162
306,622
318,533
330,854
343,547
356,592
369,937
383,521
397,274
411,096
424,916
438,69
452,377
465,947
479,368
492,582
505,539
518,204
530,514
542,4
553,761
564,446
574,321
583,264
591,165
597,935
603,464
607,616
610,263
611,304
610,651
608,241
604,003
597,849
589,728
579,631
567,597
553,73
538,147
520,971
502,347
482,438
461,441
439,586
417,1
394,18
371,021
347,824
324,805
302,216
280,283
259,198
239,118
220,167
202,454
186,064
171,041
157,387
145,063
134,01
124,157
115,452
107,828
101,2
95,457
90,459
86,074
82,177
78,65
75,374
72,23
69,122
65,99
62,808
59,574
56,295
52,98
49,639
46,288
42,956
39,682
36,512
33,486
30,649
28,047
25,732
23,763
22,177
20,989
20,197
19,784
19,732
20,02
20,622
21,502
22,626
23,962
25,476
27,142
28,928
30,8
32,722
34,655
36,57
38,448
40,274
42,037
43,729
45,345
46,884
48,348
49,74
51,059
52,303
53,47
54,56
55,573
56,512
57,379
58,177
58,905
59,568
60,166
60,703
61,179
61,595
61,954
62,257
62,506
62,706
62,86
62,972
63,046
63,087
63,099
63,085
63,051
62,998
62,932
62,854
62,768
62,678
62,585
62,493
62,405
62,324
62,251
62,191
62,146
62,117
62,106
62,117
62,149
62,206
62,286
62,392
62,525
62,683
62,869
63,082
63,321
63,587
63,878
64,194
64,534
64,895
65,278
65,68
66,1
66,536
66,988
67,453
67,93
68,416
68,911
69,413
69,919
70,428
70,937
71,445
71,951
72,451
72,945
73,431
73,907
74,371
74,823
75,261
75,684
76,091
76,48
76,85
77,202
77,535
77,848
78,141
78,413
78,666
78,898
79,11
79,302
79,474
79,626
79,759
79,873
79,968
80,044
80,103
80,144
80,168
80,175
80,166
80,14
80,099
80,042
79,97
79,882
79,779
79,662
79,531
79,385
79,226
79,053
78,868
78,67
78,459
78,236
78,001
77,754
77,497
77,229
76,952
76,666
76,372
76,07
75,762
75,448
75,129
74,806
74,48
74,153
73,824
73,497
73,172
72,85
72,533
72,224
71,922
71,63
71,349
71,08
70,825
70,585
70,36
70,152
69,962
69,79
69,637
69,504
69,392
69,299
69,226
69,173
69,139
69,124
69,127
69,147
69,183
69,235
69,302
69,381
69,473
69,575
69,685
69,803
69,925
70,051
70,178
70,303
70,426
70,543
70,654
70,755
70,845
70,923
70,987
71,034
71,064
71,075
71,066
71,036
70,984
70,909
70,812
70,692
70,548
70,382
70,193
69,981
69,747
69,49
69,213
68,914
68,595
68,257
67,901
67,528
67,138
66,733
66,315
65,885
65,444
64,993
64,533
64,067
63,594
63,117
62,636
62,153
61,668
61,184
60,699
60,216
59,735
59,256
58,779
58,305
57,834
57,366
56,9
56,436
55,975
55,515
55,057
54,601
54,145
53,689
53,233
52,775
52,315
51,852
51,385
50,913
50,436
49,953
49,462
48,963
48,455
47,937
47,407
46,865
46,309
45,738
45,15
44,545
43,922
43,279
42,615
41,931
41,224
40,495
39,744
38,969
38,17
37,348
36,502
35,633
34,741
33,826
32,889
31,931
30,953
29,956
28,94
27,908
26,86
25,798
24,724
23,639
22,547
21,449
20,349
19,251
18,159
17,076
16,009
14,96
13,934
12,937
11,971
11,041
10,149
9,299
