Nimi,Mikko Happonen
Syntymäaika,"20.5.2002"
Tallennuspäivä,2024-11-02 15:49:48 +0200
Luokitus,Sinusrytmi
Oireet,
Ohjelmistoversio,1.90
Laite,"Watch7,8"
Näytetaajuus,512 hertsiä


Kytkentä,I-kytkentä
Yksikkö,µV

55,811
52,618
51,977
51,688
50,262
45,158
38,29
31,593
25,523
21,257
18,138
15,293
12,857
10,676
8,75
7,206
5,896
4,692
3,587
2,56
1,581
0,645
−0,234
−1,048
−1,776
−2,393
−2,897
−3,281
−3,519
−3,587
−3,456
−3,106
−2,528
−1,718
−0,673
0,605
2,108
3,822
5,724
7,794
10,015
12,366
14,829
17,382
20,002
22,663
25,34
28,01
30,65
33,238
35,752
38,175
40,486
42,669
44,711
46,594
48,305
49,828
51,148
52,253
53,129
53,766
54,155
54,287
54,156
53,757
53,088
52,147
50,937
49,458
47,716
45,714
43,458
40,956
38,216
35,25
32,068
28,682
25,106
21,352
17,437
13,38
9,197
4,905
0,52
−3,947
−8,475
−13,037
−17,622
−22,217
−26,808
−31,387
−35,932
−40,41
−44,816
−49,142
−53,345
−57,396
−61,272
−64,937
−68,397
−71,675
−74,752
−77,611
−80,388
−83,229
−86,04
−88,789
−91,498
−93,878
−96,633
−100,447
−104,205
−107,494
−108,445
−104,878
−99,358
−93,717
−90,691
−93,749
−99,802
−106,27
−111,015
−111,33
−110,468
−110,771
−111,809
−112,014
−105,977
−90,71
−69,203
−48,448
−36,73
−38,352
−50,527
−65,373
−75,658
−78,29
−74,704
−69,4
−65,77
−64,391
−64,177
−63,336
−60,762
−56,346
−50,431
−43,496
−35,65
−27,184
−18,726
−10,72
−3,617
2,191
6,656
9,803
11,413
11,65
11,115
10,203
9,285
8,7
8,489
8,718
9,675
11,328
13,307
15,405
17,428
19,224
20,827
22,178
23,075
23,474
23,479
23,133
22,477
21,523
20,211
18,554
16,651
14,575
12,364
10,042
7,61
5,085
2,532
0,005
−2,456
−4,797
−6,975
−8,932
−10,576
−11,839
−12,697
−13,154
−13,258
−13,082
−12,673
−12,066
−11,295
−10,382
−9,357
−8,252
−7,079
−5,86
−4,623
−3,41
−2,291
−1,322
−0,528
0,09
0,559
0,928
1,228
1,482
1,717
1,95
2,192
2,454
2,731
3,012
3,303
3,616
3,978
4,414
4,935
5,54
6,22
6,955
7,732
8,544
9,374
10,216
11,068
11,929
12,811
13,728
14,691
15,705
16,773
17,898
19,088
20,349
21,691
23,123
24,654
26,293
28,05
29,933
31,945
34,09
36,369
38,778
41,319
43,991
46,795
49,728
52,79
55,981
59,298
62,741
66,304
69,98
73,762
77,647
81,631
85,709
89,866
94,086
98,35
102,635
106,914
111,158
115,322
119,367
123,255
126,949
130,426
133,664
136,637
139,324
141,697
143,741
145,455
146,85
147,928
148,701
149,182
149,39
149,375
149,173
148,812
148,321
147,696
146,929
146,014
144,934
143,663
142,169
140,388
138,244
135,681
132,643
129,086
124,974
120,243
114,848
108,766
101,976
94,491
86,333
77,534
68,158
58,29
48,031
37,508
26,866
16,24
5,784
−4,425
−14,401
−24,201
−33,967
−43,829
−53,832
−64,078
−74,738
−85,865
−97,33
−108,816
−119,761
−129,68
−138,363
−145,558
−150,867
−154,029
−155,046
−154,274
−152,532
−150,669
−149,154
−148,552
−149,73
−153,371
−160,035
−170,016
−182,871
−198,032
−214,434
−229,82
−241,74
−247,648
−246,626
−239,48
−225,699
−203,938
−169,058
−114,116
−36,192
66,315
189,523
326,97
474,968
625,499
769,721
894,503
981
1016,733
994,5
917,899
800,403
652,469
485,097
306,917
125,096
−43,181
−180,096
−274,377
−321,392
−333,881
−332,853
−332,179
−340,71
−355,336
−364,744
−364,407
−353,12
−334,266
−315,932
−301,892
−293,639
−291,471
−293,107
−297,04
−302,415
−308,13
−313,868
−319,297
−323,616
−326,253
−326,75
−324,962
−321,25
−316,067
−309,729
−302,596
−295,108
−287,755
−281,12
−275,535
−271,018
−267,501
−264,844
−262,891
−261,489
−260,395
−259,286
−257,968
−256,384
−254,536
−252,501
−250,333
−248,041
−245,646
−243,179
−240,633
−237,953
−235,072
−231,894
−228,329
−224,339
−219,908
−215,033
−209,717
−203,953
−197,727
−191,026
−183,844
−176,17
−168,008
−159,36
−150,239
−140,692
−130,774
−120,554
−110,109
−99,492
−88,734
−77,864
−66,891
−55,819
−44,652
−33,383
−22,002
−10,516
1,067
12,734
24,466
36,251
48,078
59,928
71,792
83,656
95,499
107,31
119,059
130,707
142,208
153,504
164,547
175,313
185,782
195,94
205,793
215,356
224,664
233,78
242,741
251,558
260,23
268,733
277,052
285,183
293,118
300,851
308,358
315,594
322,504
329,028
335,065
340,482
345,108
348,732
351,19
352,37
352,183
350,567
347,455
342,78
336,491
328,549
318,924
307,589
294,532
279,766
263,375
245,502
226,347
206,153
185,128
163,439
141,247
118,706
95,981
73,24
50,64
28,339
6,52
−14,599
−34,801
−53,91
−71,817
−88,481
−103,911
−118,144
−131,205
−143,116
−153,905
−163,611
−172,285
−179,977
−186,739
−192,646
−197,814
−202,414
−206,634
−210,627
−214,496
−218,31
−222,102
−225,902
−229,735
−233,611
−237,53
−241,491
−245,489
−249,532
−253,629
−257,766
−261,902
−265,964
−269,861
−273,53
−276,933
−280,048
−282,867
−285,389
−287,615
−289,568
−291,281
−292,778
−294,083
−295,208
−296,161
−296,961
−297,636
−298,222
−298,762
−299,286
−299,815
−300,366
−300,949
−301,571
−302,234
−302,931
−303,646
−304,37
−305,096
−305,818
−306,534
−307,24
−307,929
−308,593
−309,226
−309,822
−310,378
−310,889
−311,351
−311,764
−312,126
−312,438
−312,705
−312,929
−313,111
−313,253
−313,358
−313,428
−313,467
−313,477
−313,461
−313,423
−313,367
−313,299
−313,224
−313,148
−313,077
−313,018
−312,976
−312,959
−312,973
−313,025
−313,12
−313,266
−313,466
−313,725
−314,048
−314,437
−314,896
−315,425
−316,028
−316,705
−317,455
−318,279
−319,173
−320,137
−321,167
−322,26
−323,41
−324,612
−325,862
−327,151
−328,475
−329,826
−331,197
−332,578
−333,963
−335,342
−336,707
−338,047
−339,354
−340,618
−341,828
−342,976
−344,053
−345,048
−345,953
−346,761
−347,462
−348,05
−348,518
−348,86
−349,07
−349,143
−349,075
−348,863
−348,504
−347,997
−347,34
−346,535
−345,582
−344,483
−343,24
−341,857
−340,337
−338,686
−336,908
−335,009
−332,995
−330,874
−328,653
−326,34
−323,943
−321,47
−318,932
−316,337
−313,694
−311,014
−308,306
−305,58
−302,845
−300,111
−297,389
−294,686
−292,013
−289,377
−286,788
−284,253
−281,779
−279,373
−277,04
−274,787
−272,617
−270,535
−268,544
−266,646
−264,844
−263,138
−261,53
−260,019
−258,606
−257,288
−256,064
−254,931
−253,886
−252,925
−252,046
−251,241
−250,507
−249,837
−249,225
−248,663
−248,143
−247,655
−247,19
−246,739
−246,291
−245,837
−245,368
−244,872
−244,343
−243,772
−243,152
−242,474
−241,73
−240,909
−240,003
−239,005
−237,904
−236,692
−235,359
−233,897
−232,298
−230,556
−228,666
−226,619
−224,409
−222,022
−219,455
−216,708
−213,784
−210,689
−207,436
−204,039
−200,521
−196,914
−193,246
−189,545
−185,834
−182,133
−178,466
−174,858
−171,33
−167,904
−164,596
−161,402
−158,319
−155,333
−152,415
−149,537
−146,657
−143,72
−140,69
−137,534
−134,228
−130,759
−127,113
−123,284
−119,286
−115,141
−110,883
−106,57
−102,275
−98,086
−94,121
−90,488
−87,287
−84,621
−82,56
−81,17
−80,509
−80,629
−81,56
−83,299
−85,813
−89,036
−92,898
−97,322
−102,172
−107,242
−112,358
−117,417
−122,426
−127,529
−132,831
−138,333
−144,085
−150,174
−156,593
−163,266
−169,821
−175,57
−179,997
−182,797
−183,775
−182,863
−180,013
−175,239
−169,074
−162,487
−156,31
−151,262
−147,78
−146,206
−147,177
−151,245
−158,547
−168,887
−181,888
−197,188
−213,982
−230,136
−242,769
−248,873
−247,237
−239,573
−227,61
−211,236
−185,918
−142,801
−72,881
29,408
162,746
320,446
490,917
659,972
814,45
938,225
1017,818
1045,641
1017,548
940,285
824,837
679,338
513,973
336,552
156,206
−9,54
−144,062
−237,406
−287,593
−305,71
−307,961
−304,05
−298,054
−287,762
−267,796
−238,187
−202,696
−165,955
−132,929
−105,995
−85,375
−70,979
−62,286
−58,354
−57,952
−59,755
−62,595
−65,295
−66,915
−66,601
−63,489
−57,392
−48,696
−37,945
−25,84
−13,158
−0,548
11,288
21,601
30,055
36,637
41,499
44,983
47,453
49,221
50,619
51,978
53,475
55,201
57,214
59,521
62,137
65,097
68,421
72,138
76,314
80,999
86,207
91,932
98,134
104,772
111,825
119,285
127,138
135,37
143,96
152,881
162,126
171,677
181,505
191,559
201,775
212,108
222,537
233,066
243,707
254,475
265,383
276,448
287,69
299,124
310,758
322,589
334,604
346,789
359,125
371,605
384,231
396,996
409,895
422,909
436,012
449,172
462,352
475,511
488,615
501,628
514,521
527,286
539,932
552,49
565,014
577,552
590,138
602,798
615,538
628,359
641,257
654,214
667,202
680,188
693,129
705,982
718,711
731,233
743,435
755,161
766,209
776,376
785,471
793,303
799,698
804,514
807,623
808,936
808,397
805,946
801,532
795,103
786,595
775,997
763,348
748,728
732,29
714,214
694,696
673,969
652,275
629,83
606,843
583,49
559,927
536,34
512,925
489,891
467,483
445,917
425,383
406,057
388,052
371,43
356,225
342,413
329,941
318,775
308,874
300,203
292,734
286,401
281,114
276,773
273,229
270,326
267,904
265,786
263,832
261,951
260,071
258,164
256,222
254,228
252,172
250,052
247,857
245,595
243,28
240,925
238,572
236,278
234,107
232,143
230,446
229,043
227,949
227,158
226,649
226,404
226,395
226,581
226,933
227,416
228,002
228,667
229,379
230,096
230,774
231,363
231,824
232,131
232,263
232,207
231,957
231,508
230,865
230,038
229,036
227,863
226,523
225,019
223,355
221,538
219,577
217,483
215,263
212,925
210,478
207,931
205,291
202,565
199,76
196,88
193,93
190,92
187,856
184,748
181,602
178,427
175,232
172,023
168,809
165,596
162,39
159,197
156,02
152,866
149,736
146,635
143,567
140,533
137,537
134,58
131,667
128,798
125,976
123,203
120,479
117,807
115,186
112,617
110,1
107,635
105,222
102,86
100,548
98,285
96,069
93,898
91,771
89,684
87,634
85,619
83,635
81,679
79,747
77,837
75,945
74,068
72,202
70,343
68,489
66,634
64,776
62,911
61,033
59,14
57,226
55,288
53,322
51,323
49,288
47,213
45,096
42,931
40,717
38,451
36,131
33,753
31,318
28,824
26,27
23,656
20,982
18,25
15,46
12,613
9,711
6,757
3,752
0,7
−2,397
−5,536
−8,713
−11,924
−15,165
−18,432
−21,719
−25,023
−28,337
−31,658
−34,978
−38,293
−41,598
−44,886
−48,153
−51,392
−54,6
−57,771
−60,899
−63,982
−67,014
−69,993
−72,914
−75,776
−78,575
−81,31
−83,978
−86,579
−89,112
−91,575
−93,969
−96,293
−98,548
−100,734
−102,853
−104,905
−106,893
−108,819
−110,684
−112,493
−114,247
−115,952
−117,61
−119,227
−120,807
−122,354
−123,874
−125,372
−126,853
−128,323
−129,786
−131,249
−132,717
−134,194
−135,686
−137,197
−138,733
−140,297
−141,894
−143,529
−145,204
−146,925
−148,695
−150,517
−152,395
−154,331
−156,33
−158,394
−160,523
−162,722
−164,99
−167,328
−169,737
−172,215
−174,762
−177,375
−180,053
−182,793
−185,59
−188,44
−191,339
−194,281
−197,26
−200,271
−203,305
−206,355
−209,414
−212,474
−215,526
−218,562
−221,572
−224,548
−227,478
−230,355
−233,167
−235,904
−238,555
−241,109
−243,556
−245,883
−248,083
−250,144
−252,056
−253,811
−255,401
−256,816
−258,052
−259,102
−259,961
−260,624
−261,089
−261,356
−261,425
−261,298
−260,978
−260,47
−259,78
−258,917
−257,892
−256,717
−255,406
−253,975
−252,44
−250,822
−249,139
−247,411
−245,657
−243,896
−242,146
−240,427
−238,761
−237,168
−235,67
−234,286
−233,035
−231,93
−230,984
−230,202
−229,591
−229,157
−228,906
−228,847
−228,989
−229,346
−229,931
−230,751
−231,807
−233,091
−234,573
−236,227
−238,03
−239,958
−242,008
−244,164
−246,397
−248,677
−250,966
−253,215
−255,391
−257,423
−259,188
−260,654
−261,857
−262,911
−264,055
−265,454
−267,15
−269,258
−271,951
−275,224
−278,968
−282,833
−286,186
−288,707
−290,413
−291,29
−291,294
−290,477
−288,943
−287,202
−286,165
−286,219
−287,272
−289,154
−291,742
−295,216
−299,856
−305,442
−311,467
−317,897
−324,949
−333,122
−341,815
−348,262
−349,686
−343,76
−330,319
−312,726
−292,502
−267,142
−230,658
−172,44
−84,255
33,397
174,748
328,839
481,556
623,785
746,436
837,641
889,372
893,084
844,177
748,193
612,454
447,45
266,555
82,239
−90,671
−237,31
−345,898
−412,151
−438,61
−431,643
−403,271
−362,844
−319,169
−283,472
−258,866
−246,03
−242,062
−237,235
−227,779
−213,867
−197,521
−184,972
−178,828
−177,872
−180,426
−183,764
−186,279
−187,971
−188,866
−188,828
−187,62
−185,176
−181,677
−177,375
−172,631
−167,704
−162,757
−158,133
−154,208
−151,088
−148,689
−146,838
−145,252
−143,698
−142,031
−140,044
−137,498
−134,281
−130,363
−125,769
−120,599
−114,931
−108,807
−102,302
−95,5
−88,475
−81,298
−74,024
−66,689
−59,338
−52,011
−44,732
−37,514
−30,352
−23,234
−16,153
−9,11
−2,099
4,889
11,871
18,876
25,933
33,06
40,264
47,544
54,912
62,384
69,967
77,659
85,442
93,31
101,288
109,422
117,753
126,298
135,049
143,972
153,043
162,254
171,609
181,113
190,755
200,52
210,404
220,42
230,593
240,928
251,381
261,882
272,382
282,867
293,362
303,928
314,601
325,395
336,32
347,369
358,541
369,821
381,162
392,497
403,745
414,84
425,756
436,475
446,93
457,012
466,561
475,365
483,237
489,999
495,469
499,494
501,939
502,689
501,677
498,853
494,173
487,586
479,018
468,409
455,763
441,138
424,656
406,505
386,886
366,016
344,142
321,49
298,27
274,691
250,933
227,178
203,626
180,5
158,046
136,511
116,104
96,984
79,255
62,96
48,109
34,681
22,619
11,869
2,377
−5,917
−13,071
−19,156
−24,267
−28,532
−32,112
−35,185
−37,931
−40,495
−42,983
−45,47
−48
−50,598
−53,264
−55,992
−58,773
−61,596
−64,452
−67,328
−70,204
−73,037
−75,766
−78,314
−80,596
−82,548
−84,133
−85,328
−86,128
−86,543
−86,589
−86,297
−85,705
−84,847
−83,752
−82,45
−80,965
−79,331
−77,591
−75,789
−73,975
−72,19
−70,461
−68,812
−67,259
−65,812
−64,477
−63,253
−62,132
−61,109
−60,182
−59,349
−58,61
−57,963
−57,404
−56,925
−56,521
−56,187
−55,916
−55,704
−55,546
−55,437
−55,373
−55,352
−55,372
−55,429
−55,519
−55,637
−55,777
−55,935
−56,105
−56,283
−56,462
−56,639
−56,809
−56,968
−57,116
−57,247
−57,362
−57,456
−57,53
−57,582
−57,612
−57,62
−57,604
−57,565
−57,504
−57,42
−57,315
−57,189
−57,043
−56,878
−56,696
−56,499
−56,288
−56,064
−55,83
−55,588
−55,34
−55,088
−54,834
−54,58
−54,329
−54,082
−53,843
−53,612
−53,392
−53,186
−52,993
−52,816
−52,657
−52,516
−52,394
−52,292
−52,211
−52,152
−52,114
−52,097
−52,103
−52,13
−52,179
−52,248
−52,338
−52,447
−52,575
−52,722
−52,885
−53,064
−53,257
−53,464
−53,683
−53,913
−54,152
−54,398
−54,651
−54,91
−55,172
−55,436
−55,701
−55,966
−56,229
−56,489
−56,744
−56,993
−57,236
−57,471
−57,698
−57,916
−58,124
−58,322
−58,51
−58,688
−58,857
−59,015
−59,164
−59,303
−59,434
−59,557
−59,671
−59,778
−59,879
−59,974
−60,063
−60,147
−60,226
−60,3
−60,369
−60,432
−60,491
−60,543
−60,588
−60,626
−60,657
−60,678
−60,689
−60,689
−60,676
−60,649
−60,605
−60,542
−60,458
−60,35
−60,216
−60,052
−59,855
−59,623
−59,351
−59,038
−58,679
−58,271
−57,812
−57,297
−56,724
−56,09
−55,394
−54,632
−53,803
−52,905
−51,939
−50,902
−49,795
−48,618
−47,372
−46,057
−44,675
−43,227
−41,716
−40,144
−38,514
−36,831
−35,097
−33,318
−31,498
−29,642
−27,757
−25,848
−23,921
−21,983
−20,04
−18,1
−16,169
−14,255
−12,365
−10,506
−8,685
−6,908
−5,182
−3,514
−1,908
−0,371
1,092
2,478
3,781
4,997
6,125
7,159
8,098
8,94
9,683
10,327
10,869
11,312
11,654
11,897
12,042
12,092
12,048
11,914
11,692
11,386
11
10,538
10,005
9,405
8,742
8,023
7,25
6,43
5,566
4,664
3,726
2,758
1,763
0,745
−0,293
−1,348
−2,417
−3,497
−4,586
−5,682
−6,783
−7,887
−8,994
−10,103
−11,213
−12,324
−13,437
−14,552
−15,669
−16,791
−17,919
−19,055
−20,201
−21,36
−22,534
−23,728
−24,943
−26,183
−27,452
−28,752
−30,086
−31,458
−32,871
−34,327
−35,829
−37,381
−38,983
−40,639
−42,35
−44,118
−45,946
−47,835
−49,785
−51,798
−53,875
−56,016
−58,222
−60,493
−62,829
−65,228
−67,689
−70,212
−72,793
−75,43
−78,12
−80,859
−83,644
−86,469
−89,33
−92,221
−95,138
−98,075
−101,024
−103,982
−106,94
−109,892
−112,831
−115,751
−118,644
−121,503
−124,32
−127,088
−129,8
−132,448
−135,025
−137,522
−139,934
−142,251
−144,467
−146,574
−148,566
−150,435
−152,176
−153,783
−155,252
−156,578
−157,758
−158,79
−159,671
−160,402
−160,982
−161,412
−161,692
−161,827
−161,818
−161,672
−161,394
−160,99
−160,471
−159,847
−159,129
−158,33
−157,464
−156,546
−155,594
−154,626
−153,659
−152,715
−151,811
−150,97
−150,211
−149,557
−149,025
−148,633
−148,399
−148,338
−148,467
−148,801
−149,35
−150,119
−151,112
−152,331
−153,778
−155,458
−157,373
−159,517
−161,889
−164,488
−167,311
−170,356
−173,609
−177,046
−180,634
−184,336
−188,118
−191,956
−195,826
−199,706
−203,565
−207,353
−211,023
−214,54
−217,854
−220,926
−223,703
−226,099
−228,124
−229,883
−231,529
−233,307
−235,415
−237,944
−241,07
−245,038
−249,852
−255,385
−261,318
−267,004
−272,015
−276,134
−278,911
−279,86
−278,832
−275,808
−271,19
−265,94
−260,667
−255,915
−252,657
−251,767
−254,037
−260,203
−270,29
−283,994
−300,319
−316,465
−329,401
−336,262
−336,026
−331,661
−324,868
−313,202
−289,973
−242,736
−161,199
−44,512
101,759
265,891
433,228
594,552
740,82
859,9
941,776
974,672
951,116
875,003
753,832
599,418
425,763
244,019
67,61
−88,615
−212,387
−297,325
−345,63
−367,119
−374,413
−374,937
−370,602
−359,816
−339,404
−310,397
−277,031
−243,804
−215,214
−193,616
−179,331
−172,096
−170,85
−174,116
−180,416
−188,274
−196,309
−203,189
−207,794
−209,304
−207,448
−202,548
−195,155
−185,889
−175,419
−164,465
−153,764
−144,017
−135,56
−128,348
−122,197
−116,842
−111,997
−107,396
−102,696
−97,53
−91,721
−85,277
−78,303
−70,969
−63,39
−55,619
−47,73
−39,822
−31,958
−24,177
−16,474
−8,794
−1,119
6,535
14,135
21,649
29,09
36,521
44,032
51,697
59,568
67,675
76,037
84,688
93,639
102,879
112,366
122,023
131,793
141,648
151,575
161,565
171,589
181,592
191,498
201,261
210,852
220,269
229,519
238,598
247,516
256,299
264,992
273,676
282,418
291,256
300,223
309,344
318,651
328,204
338,07
348,29
358,888
369,866
381,204
392,91
404,981
417,411
430,19
443,27
456,604
470,168
483,929
497,842
511,847
525,851
539,735
553,405
566,766
579,737
592,25
604,206
615,488
625,968
635,501
643,95
651,183
657,047
661,394
664,114
665,121
664,366
661,843
657,532
651,412
643,474
633,695
622,073
608,65
593,494
576,707
558,433
538,834
518,104
496,468
474,118
451,227
427,957
404,435
380,807
357,243
333,91
310,994
288,704
267,221
246,711
227,329
209,16
192,257
176,636
162,265
149,119
137,189
126,452
116,897
108,5
101,198
94,924
89,59
85,057
81,187
77,83
74,823
72,053
69,443
66,935
64,511
62,156
59,846
57,57
55,319
53,078
50,855
48,654
46,482
44,382
42,405
40,614
39,085
37,868
36,983
36,442
36,235
36,34
36,74
37,405
38,296
39,384
40,638
42,03
43,539
45,13
46,763
48,396
49,98
51,476
52,86
54,11
55,211
56,157
56,943
57,571
58,051
58,388
58,586
58,648
58,574
58,367
58,033
57,577
57,007
56,33
55,552
54,677
53,713
52,665
51,537
50,333
49,054
47,705
46,288
44,809
43,273
41,684
40,047
38,367
36,648
34,896
33,114
31,306
29,475
27,623
25,753
23,868
21,969
20,058
18,137
16,209
14,276
12,342
10,408
8,479
6,559
4,649
2,756
0,882
−0,968
−2,79
−4,578
−6,328
−8,033
−9,689
−11,288
−12,825
−14,293
−15,685
−16,996
−18,218
−19,345
−20,372
−21,293
−22,101
−22,793
−23,362
−23,803
−24,114
−24,291
−24,33
−24,229
−23,99
−23,613
−23,101
−22,455
−21,681
−20,781
−19,763
−18,631
−17,393
−16,055
−14,623
−13,108
−11,521
−9,874
−8,182
−6,459
−4,722
−2,991
−1,282
0,382
1,982
3,502
4,922
6,221
7,379
8,371
9,176
9,779
10,169
10,336
10,274
9,981
9,462
8,733
7,803
6,683
5,38
3,894
2,23
0,394
−1,61
−3,776
−6,105
−8,616
−11,329
−14,269
−17,478
−20,99
−24,852
−29,128
−33,865
−39,102
−44,868
−51,171
−58,021
−65,424
−73,368
−81,836
−90,789
−100,151
−109,834
−119,734
−129,708
−139,626
−149,349
−158,707
−167,551
−175,75
−183,176
−189,731
−195,327
−199,874
−203,309
−205,6
−206,729
−206,718
−205,627
−203,541
−200,609
−196,999
−192,855
−188,343
−183,655
−179,009
−174,622
−170,684
−167,321
−164,604
−162,641
−161,589
−161,446
−162,006
−163,22
−165,107
−167,548
−170,724
−174,016
−175,868
−176,578
−177,283
−180,11
−189,05
−203,445
−219,138
−231,879
−235,712
−230,61
−221,995
−214,047
−211,434
−214,666
−219,663
−224,048
−226,083
−225,41
−223,771
−221,932
−219,923
−217,848
−215,466
−212,689
−209,759
−206,842
−203,997
−201,352
−198,925
−196,516
−194,014
−191,466
−188,773
−185,713
−182,026
−177,2
−170,976
−163,699
−155,688
−147,115
−138,34
−129,759
−121,85
−115,573
−111,625
−109,773
−109,623
−110,699
−112,24
−113,707
−114,583
−113,816
−110,506
−104,601
−96,338
−86,295
−75,419
−64,267
−53,234
−43,054
−34,405
−27,522
−22,428
−18,772
−15,879
−13,398
−11,166
−8,926
−6,464
−3,648
−0,393
3,181
6,793
10,303
13,674
16,892
19,99
22,965
25,786
28,471
31,069
33,61
36,106
38,548
40,904
43,158
45,312
47,373
49,352
51,257
53,09
54,854
56,554
58,203
59,812
61,395
62,962
64,523
66,088
67,669
69,28
70,93
72,626
74,37
76,166
78,017
79,932
81,918
83,982
86,131
88,371
90,709
93,154
95,709
98,376
101,157
104,053
107,068
110,212
113,487
116,891
120,417
124,057
127,798
131,627
135,521
139,441
143,354
147,226
151,034
154,769
158,417
161,962
165,389
168,679
171,829
174,852
177,75
180,523
183,176
185,71
188,153
190,555
192,954
195,376
197,828
200,289
202,746
205,185
207,575
209,873
212,011
213,901
215,474
216,683
217,476
217,811
217,627
216,84
215,398
213,275
210,468
207,001
202,899
198,184
192,906
187,153
181,042
174,721
168,31
161,9
155,558
149,355
143,392
137,703
132,247
126,904
121,445
115,707
109,627
103,059
95,797
87,808
79,132
70,014
61,082
52,69
44,993
38,623
34,142
31,728
31,738
33,237
34,643
36,178
37,487
39,144
42,01
42,832
39,242
28,59
8,847
−15,1
−38,51
−56,436
−64,318
−64,712
−59,811
−49,336
−30,375
6,095
69,528
165,158
291,986
443,844
609,97
777,101
933,033
1061,575
1147,421
1180,973
1155,81
1076,997
955,776
801,467
625,938
438,519
248,937
74,278
−69,842
−173,937
−235,963
−266,199
−279,127
−283,176
−281,629
−271,875
−249,224
−214,641
−172,745
−129,145
−89,462
−56,666
−31,747
−15,323
−7,306
−6,847
−12,472
−22,343
−34,823
−48,281
−61,196
−72,183
−79,989
−84,2
−85,216
−83,719
−80,464
−76,28
−71,888
−68,024
−65,471
−64,529
−65,078
−66,851
−69,426
−72,379
−75,403
−78,16
−80,275
−81,571
−81,983
−81,486
−80,169
−78,118
−75,395
−72,121
−68,436
−64,437
−60,22
−55,873
−51,456
−47,042
−42,688
−38,413
−34,235
−30,165
−26,211
−22,394
−18,721
−15,171
−11,725
−8,354
−5,016
−1,68
1,694
5,158
8,75
12,506
16,46
20,633
25,05
29,742
34,734
40,048
45,701
51,704
58,058
64,764
71,808
79,162
86,802
94,699
102,83
111,182
119,736
128,469
137,352
146,353
155,439
164,594
173,796
183,025
192,277
201,563
210,915
220,396
230,062
239,95
250,089
260,484
271,127
282,004
293,09
304,341
315,707
327,121
338,514
349,82
360,943
371,751
382,08
391,714
400,436
408,046
414,352
419,177
422,385
423,864
423,527
421,336
417,257
411,263
403,34
393,465
381,636
367,902
352,353
335,125
316,4
296,365
275,23
253,224
230,539
207,349
183,814
160,057
136,205
112,418
88,85
65,674
43,092
21,271
0,365
−19,484
−38,199
−55,734
−72,072
−87,243
−101,263
−114,132
−125,861
−136,444
−145,891
−154,249
−161,573
−167,937
−173,467
−178,294
−182,557
−186,42
−189,992
−193,349
−196,549
−199,611
−202,553
−205,405
−208,183
−210,902
−213,577
−216,208
−218,793
−221,327
−223,77
−226,071
−228,167
−229,975
−231,444
−232,549
−233,276
−233,632
−233,634
−233,296
−232,642
−231,71
−230,527
−229,12
−227,517
−225,736
−223,809
−221,779
−219,688
−217,586
−215,515
−213,501
−211,567
−209,73
−208
−206,383
−204,882
−203,488
−202,199
−201,017
−199,94
−198,971
−198,112
−197,363
−196,721
−196,184
−195,749
−195,409
−195,162
−195,011
−194,95
−194,964
−195,042
−195,171
−195,35
−195,594
−195,903
−196,251
−196,648
−197,133
−197,736
−198,489
−199,393
−200,386
−201,443
−202,619
−203,855
−204,924
−205,765
−206,443
−206,926
−207,435
−207,564
−205,929
−202,75
−199,318
−197,648
−201,648
−211,268
−222,531
−231,539
−232,752
−225,548
−215,216
−205,86
−201,832
−204,104
−208,733
−213,231
−215,978
−216,392
−216,071
−215,791
−215,489
−215,228
−214,773
−214,053
−213,288
−212,552
−211,808
−211,066
−210,34
−209,624
−208,913
−208,192
−207,427
−206,611
−205,764
−204,896
−204,01
−203,109
−202,197
−201,277
−200,359
−199,448
−198,544
−197,649
−196,766
−195,896
−195,043
−194,208
−193,391
−192,593
−191,816
−191,058
−190,319
−189,6
−188,898
−188,212
−187,541
−186,884
−186,237
−185,598
−184,965
−184,335
−183,705
−183,073
−182,435
−181,789
−181,131
−180,459
−179,77
−179,061
−178,33
−177,574
−176,79
−175,977
−175,133
−174,256
−173,344
−172,398
−171,416
−170,398
−169,345
−168,256
−167,133
−165,976
−164,787
−163,568
−162,32
−161,045
−159,747
−158,427
−157,089
−155,736
−154,371
−152,998
−151,618
−150,237
−148,856
−147,479
−146,109
−144,749
−143,401
−142,069
−140,756
−139,463
−138,194
−136,95
−135,734
−134,546
−133,39
−132,264
−131,172
−130,112
−129,087
−128,095
−127,137
−126,213
−125,323
−124,466
−123,641
−122,848
−122,085
−121,35
−120,643
−119,962
−119,306
−118,672
−118,061
−117,47
−116,898
−116,346
−115,811
−115,293
−114,79
−114,303
−113,831
−113,372
−112,928
−112,496
−112,079
−111,677
−111,29
−110,92
−110,567
−110,232
−109,918
−109,626
−109,357
−109,112
−108,893
−108,702
−108,54
−108,409
−108,312
−108,251
−108,226
−108,24
−108,294
−108,389
−108,526
−108,703
−108,922
−109,182
−109,482
−109,822
−110,2
−110,615
−111,065
−111,548
−112,061
−112,601
−113,163
−113,742
−114,333
−114,93
−115,526
−116,114
−116,687
−117,238
−117,758
−118,242
−118,682
−119,071
−119,399
−119,66
−119,846
−119,95
−119,963
−119,874
−119,675
−119,355
−118,91
−118,333
−117,619
−116,762
−115,759
−114,606
−113,306
−111,86
−110,266
−108,519
−106,613
−104,552
−102,349
−100,024
−97,595
−95,081
−92,502
−89,883
−87,257
−84,651
−82,079
−79,542
−77,038
−74,573
−72,165
−69,846
−67,647
−65,585
−63,662
−61,874
−60,223
−58,708
−57,318
−56,023
−54,784
−53,579
−52,431
−51,391
−50,513
−49,836
−49,379
−49,141
−49,12
−49,314
−49,719
−50,335
−51,15
−52,172
−53,421
−54,928
−56,731
−58,825
−61,143
−63,606
−66,098
−68,473
−70,661
−72,66
−74,542
−76,521
−78,787
−81,411
−84,503
−88,186
−92,446
−97,204
−102,104
−106,459
−109,776
−111,868
−112,667
−112,253
−110,697
−107,921
−104,269
−100,576
−97,524
−95,562
−94,783
−94,941
−96,204
−99,259
−104,439
−111,831
−121,458
−133,011
−146,74
−162,188
−176,57
−186,699
−189,543
−184,157
−173,746
−159,933
−139,844
−106,271
−47,09
46,13
172,347
324,925
491,87
660,344
822,419
966,654
1078,372
1144,699
1151,968
1097,725
991,208
843,21
669,44
483,177
294,684
119,896
−27,071
−137,645
−209,554
−251,869
−277,519
−294,047
−303,846
−303,591
−288,362
−258,767
−218,939
−174,554
−131,661
−93,286
−60,96
−35,902
−18,279
−7,963
−4,274
−5,647
−10,544
−17,667
−25,396
−32,209
−36,842
−38,232
−36,173
−31,186
−23,9
−15,043
−5,507
3,902
12,337
18,968
23,509
26,088
26,977
26,598
25,365
23,576
21,579
19,749
18,293
17,325
16,884
16,921
17,427
18,442
20,002
22,118
24,785
27,965
31,614
35,701
40,195
45,072
50,308
55,871
61,732
67,862
74,248
80,872
87,709
94,713
101,82
108,987
116,195
123,446
130,753
138,128
145,578
153,119
160,772
168,554
176,48
184,561
192,8
201,212
209,813
218,618
227,649
236,916
246,412
256,124
266,026
276,078
286,244
296,482
306,752
317,021
327,254
337,409
347,443
357,303
366,946
376,349
385,49
394,349
402,928
411,235
419,302
427,19
434,934
442,547
450,029
457,352
464,503
471,474
478,256
484,84
491,202
497,292
503,058
508,438
513,333
517,617
521,125
523,648
525,025
525,149
523,93
521,317
517,251
511,668
504,517
495,766
485,384
473,349
459,655
444,309
427,386
409,022
389,409
368,793
347,386
325,359
302,876
280,083
257,137
234,207
211,454
189,027
167,107
145,901
125,61
106,434
88,501
71,869
56,55
42,504
29,701
18,127
7,753
−1,451
−9,525
−16,524
−22,505
−27,525
−31,692
−35,156
−38,081
−40,647
−42,984
−45,175
−47,278
−49,323
−51,338
−53,345
−55,358
−57,381
−59,419
−61,479
−63,565
−65,688
−67,822
−69,916
−71,907
−73,718
−75,296
−76,619
−77,672
−78,455
−78,976
−79,249
−79,301
−79,165
−78,866
−78,426
−77,863
−77,189
−76,428
−75,612
−74,776
−73,961
−73,199
−72,51
−71,909
−71,407
−71,009
−70,715
−70,517
−70,404
−70,367
−70,401
−70,499
−70,661
−70,883
−71,157
−71,478
−71,838
−72,231
−72,653
−73,097
−73,56
−74,038
−74,53
−75,035
−75,554
−76,086
−76,63
−77,186
−77,753
−78,327
−78,91
−79,499
−80,093
−80,691
−81,293
−81,899
−82,51
−83,125
−83,746
−84,374
−85,009
−85,652
−86,304
−86,965
−87,635
−88,315
−89,005
−89,703
−90,41
−91,124
−91,844
−92,57
−93,299
−94,029
−94,759
−95,487
−96,21
−96,925
−97,63
−98,323
−99,001
−99,662
−100,304
−100,924
−101,522
−102,094
−102,64
−103,158
−103,645
−104,103
−104,528
−104,921
−105,281
−105,608
−105,902
−106,163
−106,393
−106,592
−106,762
−106,903
−107,019
−107,11
−107,18
−107,23
−107,263
−107,283
−107,292
−107,294
−107,29
−107,286
−107,283
−107,285
−107,295
−107,314
−107,347
−107,395
−107,46
−107,545
−107,65
−107,778
−107,93
−108,105
−108,305
−108,53
−108,78
−109,053
−109,349
−109,667
−110,006
−110,364
−110,739
−111,129
−111,533
−111,948
−112,372
−112,803
−113,237
−113,674
−114,109
−114,541
−114,968
−115,386
−115,795
−116,19
−116,572
−116,938
−117,287
−117,617
−117,927
−118,218
−118,488
−118,739
−118,97
−119,181
−119,375
−119,551
−119,712
−119,86
−119,996
−120,123
−120,243
−120,359
−120,473
−120,588
−120,707
−120,831
−120,964
−121,109
−121,267
−121,44
−121,632
−121,844
−122,078
−122,336
−122,619
−122,927
−123,262
−123,624
−124,011
−124,424
−124,86
−125,316
−125,788
−126,273
−126,766
−127,263
−127,759
−128,248
−128,725
−129,185
−129,624
−130,036
−130,415
−130,754
−131,045
−131,281
−131,456
−131,559
−131,584
−131,52
−131,358
−131,091
−130,714
−130,217
−129,592
−128,83
−127,918
−126,851
−125,628
−124,252
−122,727
−121,064
−119,278
−117,39
−115,43
−113,425
−111,4
−109,377
−107,372
−105,409
−103,509
−101,691
−99,979
−98,385
−96,903
−95,529
−94,25
−93,036
−91,86
−90,681
−89,444
−88,109
−86,642
−85,019
−83,23
−81,265
−79,122
−76,817
−74,366
−71,798
−69,177
−66,568
−64,049
−61,72
−59,659
−57,942
−56,672
−55,919
−55,751
−56,232
−57,383
−59,204
−61,68
−64,764
−68,408
−72,564
−77,114
−81,892
−86,781
−91,706
−96,715
−101,954
−107,483
−113,28
−119,352
−125,781
−132,592
−139,667
−146,642
−152,88
−157,897
−161,537
−163,777
−164,518
−163,663
−161,291
−157,808
−154,079
−150,87
−148,411
−146,678
−145,855
−146,374
−148,573
−152,633
−158,308
−165,22
−173,663
−183,496
−192,919
−199,299
−199,691
−192,66
−180,09
−164,544
−146,373
−121,501
−81,18
−14,752
85,425
219,827
382,688
560,62
736,374
893,596
1014,844
1088,445
1108,238
1071,933
985,896
858,03
698,372
520,26
336,007
160,835
9,34
−109,044
−191,192
−242,187
−271,562
−288,475
−297,314
−297,661
−287,382
−265,028
−232,811
−195,558
−158,083
−124,217
−96,062
−74,356
−59,271
−50,534
−47,288
−48,099
−51,441
−56,031
−60,543
−63,863
−65,068
−63,3
−58,407
−50,863
−41,306
−30,492
−19,234
−8,197
1,942
10,493
17,186
22,056
25,294
27,257
28,313
28,779
28,982
29,233
29,695
30,433
31,484
32,85
34,535
36,545
38,875
41,513
44,479
47,831
51,589
55,744
60,269
65,113
70,252
75,69
81,422
87,44
93,729
100,264
107,033
114,046
121,293
128,752
136,39
144,152
152,014
159,98
168,058
176,268
184,631
193,152
201,843
210,72
219,793
229,061
238,518
248,134
257,877
267,738
277,713
287,809
298,035
308,37
318,784
329,258
339,766
350,25
360,663
370,962
381,109
391,123
401,053
410,922
420,754
430,702
440,92
451,35
461,988
472,838
483,627
495,003
507,595
520,431
533,18
544,072
550,977
556,069
560,732
567,038
577,868
590,259
601,68
610,379
613,6
613,109
610,723
606,795
602,421
596,88
589,26
579,677
568,011
554,362
538,989
521,946
503,354
483,471
462,547
440,783
418,374
395,53
372,434
349,266
326,225
303,475
281,205
259,655
239,017
219,435
201,018
183,794
167,759
152,899
139,161
126,496
114,859
104,187
94,43
85,554
77,493
70,167
63,464
57,219
51,295
45,595
40,038
34,585
29,213
23,898
18,652
13,499
8,457
3,55
−1,21
−5,827
−10,282
−14,544
−18,568
−22,274
−25,605
−28,531
−31,029
−33,094
−34,732
−35,948
−36,769
−37,241
−37,403
−37,294
−36,945
−36,381
−35,634
−34,743
−33,754
−32,718
−31,677
−30,663
−29,705
−28,824
−28,04
−27,368
−26,813
−26,373
−26,045
−25,832
−25,734
−25,756
−25,897
−26,155
−26,524
−27
−27,578
−28,254
−29,023
−29,878
−30,814
−31,826
−32,907
−34,056
−35,266
−36,531
−37,843
−39,193
−40,575
−41,98
−43,401
−44,83
−46,259
−47,683
−49,096
−50,495
−51,874
−53,23
−54,559
−55,861
−57,131
−58,369
−59,575
−60,746
−61,883
−62,986
−64,055
−65,091
−66,095
−67,067
−68,009
−68,922
−69,808
−70,668
−71,506
−72,322
−73,119
−73,901
−74,668
−75,425
−76,173
−76,916
−77,654
−78,391
−79,127
−79,864
−80,603
−81,343
−82,085
−82,829
−83,574
−84,318
−85,062
−85,804
−86,542
−87,276
−88,004
−88,725
−89,437
−90,14
−90,83
−91,509
−92,175
−92,827
−93,465
−94,087
−94,694
−95,285
−95,86
−96,417
−96,956
−97,477
−97,979
−98,463
−98,927
−99,374
−99,802
−100,214
−100,61
−100,992
−101,36
−101,717
−102,064
−102,402
−102,734
−103,062
−103,386
−103,709
−104,034
−104,36
−104,691
−105,027
−105,368
−105,715
−106,07
−106,43
−106,797
−107,169
−107,546
−107,928
−108,314
−108,704
−109,097
−109,492
−109,889
−110,288
−110,686
−111,083
−111,478
−111,869
−112,256
−112,637
−113,012
−113,379
−113,738
−114,088
−114,427
−114,756
−115,073
−115,377
−115,668
−115,945
−116,208
−116,458
−116,694
−116,92
−117,135
−117,342
−117,543
−117,741
−117,939
−118,137
−118,34
−118,547
−118,763
−118,989
−119,227
−119,48
−119,749
−120,036
−120,343
−120,672
−121,025
−121,401
−121,8
−122,224
−122,671
−123,141
−123,633
−124,146
−124,679
−125,231
−125,8
−126,385
−126,982
−127,587
−128,197
−128,806
−129,409
−129,999
−130,567
−131,107
−131,612
−132,073
−132,485
−132,839
−133,129
−133,349
−133,495
−133,56
−133,539
−133,423
−133,206
−132,879
−132,436
−131,869
−131,172
−130,339
−129,364
−128,246
−126,987
−125,587
−124,046
−122,363
−120,532
−118,556
−116,444
−114,205
−111,851
−109,401
−106,879
−104,319
−101,771
−99,27
−96,844
−94,516
−92,293
−90,188
−88,215
−86,381
−84,693
−83,154
−81,763
−80,525
−79,452
−78,532
−77,74
−77,03
−76,327
−75,585
−74,788
−73,926
−73,011
−72,062
−71,107
−70,194
−69,389
−68,739
−68,273
−67,997
−67,905
−68,017
−68,383
−69,079
−70,197
−71,783
−73,841
−76,356
−79,299
−82,634
−86,271
−90,053
−93,857
−97,642
−101,503
−105,663
−110,3
−115,48
−121,288
−127,808
−135,009
−142,779
−150,691
−158,025
−164,238
−168,957
−171,897
−172,876
−171,704
−168,289
−163,097
−157,022
−150,814
−145,212
−140,812
−138,133
−138,062
−141,523
−148,889
−160,102
−175,109
−192,766
−210,738
−226,521
−236,77
−240,076
−238,695
−234,396
−226,746
−210,526
−174,378
−106,89
−2,356
136,746
300,729
475,136
646,171
802,904
932,527
1023,883
1067,74
1056,147
992,141
885,048
745,993
589,84
425,126
257,242
95,124
−53,624
−178,316
−268,253
−321,836
−342,585
−339,022
−322,543
−299,341
−272,375
−242,602
−209,449
−175,018
−142,424
−114,415
−93,543
−80,286
−73,756
−72,843
−75,746
−80,699
−86,571
−92,261
−96,873
−99,947
−101,055
−99,91
−96,833
−92,462
−87,373
−82,204
−77,481
−73,505
−70,636
−69,236
−69,298
−70,552
−72,675
−75,244
−77,899
−80,432
−82,598
−84,109
−84,82
−84,653
−83,569
−81,632
−78,895
−75,38
−71,16
−66,332
−60,996
−55,293
−49,348
−43,25
−37,087
−30,919
−24,78
−18,71
−12,732
−6,85
−1,08
4,58
10,14
15,602
20,982
26,306
31,607
36,939
42,354
47,895
53,601
59,507
65,645
72,04
78,709
85,657
92,886
100,393
108,172
116,209
124,481
132,959
141,618
150,431
159,381
168,442
177,588
186,786
195,999
205,192
214,344
223,436
232,456
241,408
250,307
259,192
268,13
277,173
286,364
295,733
305,279
315,005
324,906
334,96
345,15
355,45
365,815
376,211
386,577
396,811
406,784
416,321
425,194
433,192
440,111
445,751
449,962
452,601
453,542
452,698
449,987
445,331
438,665
429,912
419,022
406,019
390,976
374,028
355,386
335,264
313,895
291,539
268,419
244,761
220,786
196,679
172,633
148,86
125,583
103,058
81,533
61,185
42,146
24,493
8,238
−6,621
−20,117
−32,33
−43,325
−53,175
−61,958
−69,734
−76,571
−82,576
−87,878
−92,646
−97,063
−101,268
−105,365
−109,433
−113,513
−117,635
−121,809
−126,008
−130,203
−134,37
−138,482
−142,525
−146,487
−150,328
−153,997
−157,42
−160,512
−163,213
−165,487
−167,306
−168,665
−169,565
−170,016
−170,054
−169,721
−169,053
−168,086
−166,85
−165,367
−163,674
−161,811
−159,824
−157,762
−155,665
−153,563
−151,483
−149,445
−147,464
−145,551
−143,71
−141,936
−140,228
−138,587
−137,015
−135,516
−134,091
−132,737
−131,453
−130,236
−129,083
−127,993
−126,963
−125,99
−125,072
−124,208
−123,397
−122,637
−121,928
−121,267
−120,65
−120,074
−119,534
−119,028
−118,551
−118,099
−117,668
−117,256
−116,859
−116,475
−116,102
−115,739
−115,383
−115,034
−114,69
−114,35
−114,015
−113,684
−113,356
−113,032
−112,711
−112,394
−112,081
−111,772
−111,467
−111,168
−110,876
−110,591
−110,314
−110,047
−109,789
−109,542
−109,307
−109,084
−108,874
−108,677
−108,494
−108,325
−108,171
−108,031
−107,906
−107,796
−107,699
−107,615
−107,544
−107,483
−107,432
−107,39
−107,355
−107,326
−107,302
−107,281
−107,261
−107,241
−107,219
−107,194
−107,164
−107,126
−107,08
−107,024
−106,956
−106,876
−106,782
−106,673
−106,549
−106,409
−106,253
−106,08
−105,891
−105,686
−105,464
−105,226
−104,972
−104,704
−104,422
−104,127
−103,821
−103,505
−103,18
−102,848
−102,511
−102,171
−101,828
−101,486
−101,146
−100,811
−100,483
−100,164
−99,857
−99,565
−99,288
−99,031
−98,795
−98,581
−98,392
−98,229
−98,093
−97,986
−97,909
−97,861
−97,845
−97,86
−97,907
−97,986
−98,097
−98,24
−98,413
−98,617
−98,85
−99,112
−99,401
−99,717
−100,058
−100,423
−100,81
−101,218
−101,644
−102,087
−102,543
−103,012
−103,489
−103,974
−104,462
−104,951
−105,44
−105,925
−106,403
−106,874
−107,334
−107,781
−108,213
−108,629
−109,025
−109,401
−109,755
−110,085
−110,39
−110,668
−110,917
−111,138
−111,328
−111,487
−111,612
−111,704
−111,761
−111,782
−111,766
−111,713
−111,622
−111,493
−111,326
−111,12
−110,876
−110,594
−110,273
−109,915
−109,52
−109,089
−108,621
−108,118
−107,58
−107,009
−106,405
−105,769
−105,102
−104,405
−103,679
−102,926
−102,147
−101,343
−100,516
−99,669
−98,802
−97,917
−97,018
−96,105
−95,182
−94,25
−93,312
−92,37
−91,427
−90,485
−89,546
−88,613
−87,688
−86,773
−85,87
−84,981
−84,107
−83,251
−82,413
−81,596
−80,801
−80,029
−79,282
−78,559
−77,862
−77,192
−76,55
−75,934
−75,345
−74,783
−74,248
−73,737
−73,252
−72,789
−72,349
−71,929
−71,528
−71,145
−70,778
−70,425
−70,085
−69,754
−69,433
−69,118
−68,809
−68,504
−68,202
−67,9
−67,599
−67,298
−66,995
−66,691
−66,384
−66,073
−65,76
−65,443
−65,123
−64,8
−64,475
−64,148
−63,821
−63,495
−63,173
−62,856
−62,545
−62,245
−61,956
−61,682
−61,424
−61,185
−60,967
−60,771
−60,6
−60,455
−60,338
−60,249
−60,19
−60,161
−60,162
−60,192
−60,25
−60,334
−60,443
−60,573
−60,723
−60,889
−61,067
−61,254
−61,446
−61,637
−61,824
−62
−62,158
−62,292
−62,394
−62,457
−62,471
−62,43
−62,321
−62,138
−61,874
−61,52
−61,068
−60,512
−59,844
−59,059
−58,151
−57,115
−55,943
−54,631
−53,174
−51,569
−49,817
−47,918
−45,874
−43,69
−41,37
−38,924
−36,363
−33,696
−30,93
−28,074
−25,137
−22,135
−19,094
−16,04
−12,994
−9,981
−7,024
−4,152
−1,394
1,228
3,71
6,043
8,223
10,238
12,068
13,697
15,109
16,302
17,286
18,064
18,637
19,012
19,202
19,23
19,128
18,902
18,541
18,038
17,398
16,637
15,783
14,851
13,844
12,764
11,625
10,451
9,273
8,118
6,979
5,863
4,804
3,794
2,772
1,609
0,057
−2,108
−4,991
−8,746
−13,57
−19,41
−26,066
−33,129
−39,81
−45,515
−49,947
−52,631
−53,112
−51,384
−47,62
−42,429
−37,094
−32,479
−29,052
−27,658
−29,137
−33,911
−42,207
−53,749
−67,426
−82,363
−98,12
−112,569
−121,889
−122,918
−112,412
−89,915
−60,1
−25,278
15,049
64,154
132,663
228,736
354,349
507,775
676,37
842,557
988,284
1092,669
1142,414
1133,852
1071,905
971,662
847,988
709,382
559,069
397,048
228,419
67,609
−67,524
−162,778
−214,102
−228,738
−218,048
−191,813
−155,955
−114,119
−71,557
−34,491
−8,002
6,624
13,208
16,223
18,373
19,936
18,111
11,36
0,707
−11,842
−22,961
−30,271
−33,418
−32,642
−28,599
−22,155
−14,016
−4,92
4,066
11,948
18,26
22,833
25,76
27,354
27,906
27,731
27,258
26,92
26,952
27,418
28,285
29,458
30,88
32,528
34,368
36,351
38,464
40,744
43,221
45,924
48,855
51,964
55,217
58,593
62,088
65,736
69,567
73,597
77,846
82,338
87,079
92,077
97,316
102,744
108,328
114,053
119,915
125,929
132,111
138,46
144,98
151,673
158,543
165,603
172,866
180,335
188,02
195,934
204,095
212,533
221,264
230,284
239,571
249,103
258,855
268,809
278,948
289,244
299,666
310,182
320,75
331,338
341,918
352,458
362,931
373,327
383,644
393,907
404,168
414,469
424,844
435,318
445,887
456,537
467,248
477,991
488,734
499,44
510,059
520,541
530,828
540,833
550,451
559,54
567,904
575,351
581,693
586,744
590,374
592,486
592,997
591,853
589,012
584,433
578,094
569,976
560,058
548,337
534,842
519,645
502,894
484,775
465,491
445,272
424,307
402,756
380,778
358,51
336,087
313,656
291,364
269,36
247,833
226,984
207,001
188,056
170,246
153,61
138,16
123,866
110,711
98,688
87,781
77,974
69,249
61,57
54,892
49,163
44,279
40,093
36,452
33,19
30,189
27,377
24,701
22,139
19,669
17,272
14,938
12,664
10,441
8,264
6,126
4,021
1,976
0,042
−1,716
−3,221
−4,422
−5,294
−5,828
−6,025
−5,899
−5,468
−4,763
−3,821
−2,674
−1,348
0,133
1,751
3,477
5,272
7,093
8,893
10,634
12,287
13,831
15,247
16,525
17,659
18,649
19,503
20,225
20,817
21,279
21,609
21,808
21,881
21,831
21,665
21,387
21,002
20,516
19,934
19,261
18,502
17,66
16,737
15,738
14,667
13,531
12,335
11,086
9,791
8,457
7,09
5,699
4,29
2,869
1,442
0,013
−1,411
−2,828
−4,233
−5,621
−6,991
−8,337
−9,658
−10,951
−12,213
−13,442
−14,636
−15,794
−16,914
−17,995
−19,037
−20,039
−21,002
−21,924
−22,806
−23,649
−24,454
−25,222
−25,955
−26,654
−27,323
−27,964
−28,58
−29,175
−29,751
−30,313
−30,863
−31,406
−31,943
−32,479
−33,016
−33,557
−34,105
−34,662
−35,232
−35,816
−36,417
−37,035
−37,672
−38,331
−39,011
−39,713
−40,439
−41,19
−41,965
−42,765
−43,589
−44,439
−45,312
−46,208
−47,126
−48,065
−49,022
−49,995
−50,983
−51,982
−52,989
−54,002
−55,019
−56,035
−57,048
−58,055
−59,054
−60,04
−61,013
−61,969
−62,906
−63,823
−64,718
−65,589
−66,437
−67,259
−68,056
−68,827
−69,572
−70,29
−70,982
−71,649
−72,29
−72,907
−73,501
−74,072
−74,624
−75,156
−75,671
−76,172
−76,66
−77,138
−77,607
−78,072
−78,534
−78,997
−79,462
−79,933
−80,412
−80,902
−81,404
−81,921
−82,455
−83,006
−83,576
−84,166
−84,777
−85,409
−86,062
−86,736
−87,431
−88,147
−88,883
−89,639
−90,414
−91,207
−92,016
−92,841
−93,68
−94,532
−95,395
−96,268
−97,15
−98,038
−98,932
−99,829
−100,729
−101,629
−102,527
−103,423
−104,314
−105,201
−106,081
−106,954
−107,819
−108,675
−109,523
−110,363
−111,194
−112,017
−112,832
−113,641
−114,443
−115,24
−116,034
−116,824
−117,613
−118,401
−119,19
−119,982
−120,776
−121,575
−122,38
−123,191
−124,009
−124,836
−125,672
−126,518
−127,374
−128,242
−129,121
−130,011
−130,914
−131,828
−132,755
−133,694
−134,644
−135,604
−136,576
−137,556
−138,545
−139,541
−140,543
−141,55
−142,56
−143,571
−144,582
−145,591
−146,597
−147,597
−148,589
−149,573
−150,546
−151,507
−152,454
−153,386
−154,302
−155,201
−156,082
−156,943
−157,785
−158,606
−159,406
−160,184
−160,941
−161,676
−162,389
−163,079
−163,747
−164,393
−165,017
−165,62
−166,202
−166,763
−167,304
−167,827
−168,331
−168,819
−169,291
−169,748
−170,191
−170,623
−171,043
−171,454
−171,856
−172,252
−172,641
−173,027
−173,408
−173,788
−174,166
−174,543
−174,921
−175,299
−175,677
−176,057
−176,438
−176,82
−177,203
−177,586
−177,97
−178,352
−178,733
−179,11
−179,482
−179,848
−180,204
−180,549
−180,879
−181,191
−181,482
−181,748
−181,985
−182,188
−182,354
−182,477
−182,552
−182,574
−182,537
−182,436
−182,264
−182,017
−181,687
−181,269
−180,757
−180,147
−179,433
−178,61
−177,674
−176,62
−175,445
−174,145
−172,718
−171,161
−169,475
−167,658
−165,711
−163,637
−161,439
−159,124
−156,697
−154,167
−151,543
−148,835
−146,056
−143,22
−140,342
−137,439
−134,526
−131,624
−128,751
−125,929
−123,179
−120,52
−117,97
−115,548
−113,273
−111,163
−109,237
−107,509
−105,988
−104,684
−103,602
−102,751
−102,138
−101,77
−101,645
−101,762
−102,119
−102,717
−103,552
−104,614
−105,881
−107,326
−108,915
−110,621
−112,425
−114,311
−116,268
−118,276
−120,297
−122,293
−124,232
−126,082
−127,817
−129,397
−130,753
−131,881
−132,872
−133,887
−135,167
−136,91
−139,217
−142,209
−146,066
−150,846
−156,407
−162,404
−168,224
−173,322
−177,42
−180,211
−181,269
−180,342
−177,45
−172,95
−167,659
−162,365
−157,479
−153,569
−151,473
−151,794
−155,008
−161,306
−170,268
−181,57
−194,404
−206,324
−214,39
−215,807
−209,745
−198,52
−184,126
−166,056
−138,86
−92,857
−19,432
85,879
220,371
376,089
542,186
706,283
856,164
976,889
1054,372
1077,664
1041,288
950,591
815,995
650,625
468,599
281,456
102,621
−52,817
−172,122
−248,98
−286,404
−295,563
−290,47
−279,495
−265,023
−245,75
−218,501
−184,55
−148,39
−114,244
−86,262
−66,208
−53,622
−47,709
−47,312
−50,819
−56,668
−63,691
−70,786
−77,074
−82,039
−85,132
−85,899
−84,509
−81,462
−77,189
−72,235
−67,083
−62,036
−57,542
−54,066
−51,698
−50,303
−49,655
−49,402
−49,233
−48,953
−48,317
−47,069
−45,102
−42,389
−38,965
−34,944
−30,415
−25,431
−20,066
−14,396
−8,481
−2,392
3,81
10,075
16,342
22,566
28,717
34,771
40,72
46,564
52,315
57,992
63,62
69,22
74,808
80,403
86,021
91,687
97,427
103,265
109,228
115,342
121,634
128,139
134,882
141,88
149,146
156,689
164,507
172,6
180,955
189,551
198,364
207,373
216,558
225,909
235,409
245,035
254,762
264,555
274,386
284,237
294,088
303,918
313,727
323,526
333,347
343,252
353,297
363,522
373,959
384,622
395,504
406,599
417,882
429,317
440,859
452,451
464,03
475,536
486,885
497,955
508,592
518,596
527,76
535,889
542,792
548,296
552,268
554,596
555,195
554,018
551,021
546,171
539,445
530,813
520,262
507,824
493,571
477,633
460,188
441,42
421,541
400,77
379,295
357,288
334,909
312,292
289,583
266,941
244,524
222,517
201,129
180,543
160,929
142,406
125,032
108,838
93,82
79,946
67,196
55,552
44,991
35,491
27,022
19,526
12,941
7,168
2,062
−2,527
−6,762
−10,773
−14,642
−18,428
−22,166
−25,87
−29,554
−33,223
−36,874
−40,509
−44,126
−47,717
−51,276
−54,771
−58,143
−61,323
−64,226
−66,793
−68,99
−70,798
−72,215
−73,247
−73,911
−74,231
−74,243
−73,979
−73,464
−72,723
−71,777
−70,656
−69,398
−68,047
−66,653
−65,254
−63,879
−62,55
−61,287
−60,101
−59,001
−57,987
−57,054
−56,199
−55,424
−54,728
−54,115
−53,586
−53,138
−52,769
−52,475
−52,252
−52,098
−52,01
−51,984
−52,017
−52,107
−52,252
−52,452
−52,705
−53,008
−53,357
−53,749
−54,178
−54,642
−55,136
−55,654
−56,193
−56,747
−57,313
−57,888
−58,468
−59,05
−59,631
−60,207
−60,778
−61,34
−61,891
−62,43
−62,954
−63,463
−63,954
−64,427
−64,881
−65,315
−65,728
−66,123
−66,497
−66,853
−67,191
−67,511
−67,814
−68,102
−68,373
−68,63
−68,874
−69,105
−69,324
−69,534
−69,735
−69,929
−70,118
−70,302
−70,484
−70,664
−70,844
−71,024
−71,207
−71,394
−71,585
−71,781
−71,984
−72,195
−72,413
−72,64
−72,875
−73,119
−73,371
−73,629
−73,895
−74,166
−74,443
−74,723
−75,006
−75,292
−75,58
−75,868
−76,156
−76,443
−76,727
−77,009
−77,287
−77,561
−77,828
−78,089
−78,342
−78,587
−78,823
−79,049
−79,264
−79,467
−79,658
−79,835
−79,998
−80,147
−80,281
−80,4
−80,504
−80,594
−80,671
−80,736
−80,788
−80,831
−80,865
−80,891
−80,911
−80,926
−80,938
−80,948
−80,958
−80,969
−80,982
−80,999
−81,022
−81,05
−81,086
−81,13
−81,183
−81,247
−81,322
−81,41
−81,51
−81,624
−81,753
−81,897
−82,058
−82,236
−82,432
−82,645
−82,876
−83,125
−83,392
−83,675
−83,974
−84,288
−84,616
−84,957
−85,309
−85,672
−86,043
−86,422
−86,806
−87,195
−87,587
−87,981
−88,375
−88,768
−89,16
−89,548
−89,933
−90,313
−90,689
−91,058
−91,421
−91,777
−92,126
−92,466
−92,797
−93,118
−93,43
−93,731
−94,022
−94,303
−94,573
−94,834
−95,085
−95,327
−95,561
−95,787
−96,007
−96,22
−96,428
−96,633
−96,834
−97,032
−97,23
−97,427
−97,624
−97,823
−98,022
−98,223
−98,426
−98,63
−98,836
−99,042
−99,25
−99,459
−99,668
−99,877
−100,086
−100,295
−100,503
−100,709
−100,914
−101,116
−101,316
−101,513
−101,706
−101,896
−102,081
−102,262
−102,438
−102,609
−102,776
−102,937
−103,094
−103,246
−103,393
−103,536
−103,676
−103,813
−103,949
−104,085
−104,222
−104,362
−104,507
−104,659
−104,82
−104,991
−105,176
−105,376
−105,594
−105,831
−106,09
−106,373
−106,682
−107,018
−107,382
−107,776
−108,199
−108,653
−109,138
−109,652
−110,195
−110,766
−111,363
−111,983
−112,626
−113,287
−113,962
−114,648
−115,34
−116,033
−116,72
−117,397
−118,057
−118,692
−119,297
−119,863
−120,382
−120,847
−121,249
−121,58
−121,83
−121,991
−122,053
−122,01
−121,852
−121,573
−121,164
−120,62
−119,936
−119,106
−118,126
−116,992
−115,702
−114,255
−112,651
−110,89
−108,976
−106,912
−104,706
−102,366
−99,903
−97,327
−94,651
−91,888
−89,056
−86,172
−83,254
−80,32
−77,391
−74,489
−71,636
−68,857
−66,174
−63,609
−61,183
−58,916
−56,828
−54,937
−53,26
−51,809
−50,593
−49,618
−48,893
−48,429
−48,231
−48,3
−48,633
−49,231
−50,088
−51,198
−52,55
−54,117
−55,869
−57,776
−59,801
−61,919
−64,104
−66,33
−68,577
−70,816
−73,004
−75,111
−77,104
−78,934
−80,588
−82,034
−83,223
−84,219
−85,143
−86,155
−87,526
−89,477
−92,105
−95,597
−100,182
−105,812
−112,321
−119,355
−126,178
−132,246
−137,228
−140,511
−141,476
−139,923
−135,793
−129,449
−121,989
−114,29
−107,058
−101,534
−99,059
−100,653
−107,195
−119,103
−134,942
−152,087
−168,049
−179,451
−184,872
−186,17
−183,789
−176,313
−158,48
−119,499
−49,092
57,818
199,167
366,097
544,033
717,858
874,953
1000,999
1085,86
1123,281
1107,523
1042,594
935,323
792,258
625,436
443,532
257,164
82,419
−67,707
−181,25
−253,529
−290,469
−301,769
−298,839
−288,509
−271,952
−248,606
−217,259
−180,123
−141,729
−106,02
−76,762
−55,544
−42,036
−35,584
−34,717
−37,489
−42,316
−47,865
−52,76
−56,053
−57,05
−55,127
−50,375
−43,456
−35,126
−26,165
−17,388
−9,405
−2,779
1,907
4,497
5,169
4,235
2,158
−0,585
−3,587
−6,459
−8,817
−10,444
−11,236
−11,123
−10,122
−8,257
−5,549
−2,054
2,153
7,012
12,462
18,41
24,76
31,391
38,159
44,971
51,761
58,473
65,075
71,528
77,807
83,915
89,871
95,694
101,403
107,015
112,55
118,049
123,561
129,142
134,85
140,726
146,804
153,118
159,698
166,574
173,77
181,29
189,128
197,282
205,743
214,502
223,54
232,822
242,312
251,976
261,785
271,721
281,758
291,863
301,994
312,105
322,155
332,124
341,999
351,766
361,426
370,99
380,493
389,997
399,556
409,193
418,907
428,671
438,46
448,258
458,044
467,799
477,491
487,063
496,454
505,594
514,385
522,689
530,323
537,06
542,682
547,028
549,98
551,445
551,342
549,588
546,118
540,882
533,843
524,972
514,237
501,627
487,191
471,039
453,36
434,388
414,369
393,506
371,975
349,946
327,592
305,087
282,59
260,256
238,247
216,757
196,018
176,224
157,518
139,977
123,61
108,393
94,289
81,265
69,293
58,333
48,335
39,252
31,048
23,67
17,043
11,044
5,494
0,248
−4,798
−9,718
−14,54
−19,284
−23,965
−28,585
−33,127
−37,576
−41,916
−46,138
−50,251
−54,245
−58,092
−61,739
−65,099
−68,109
−70,734
−72,951
−74,756
−76,151
−77,142
−77,751
−78,022
−77,99
−77,691
−77,151
−76,388
−75,429
−74,31
−73,073
−71,769
−70,44
−69,115
−67,821
−66,58
−65,409
−64,324
−63,329
−62,42
−61,595
−60,857
−60,206
−59,648
−59,186
−58,817
−58,54
−58,351
−58,248
−58,231
−58,296
−58,439
−58,659
−58,951
−59,315
−59,75
−60,254
−60,822
−61,451
−62,134
−62,868
−63,646
−64,463
−65,313
−66,189
−67,088
−68,003
−68,93
−69,865
−70,804
−71,742
−72,676
−73,603
−74,52
−75,424
−76,313
−77,184
−78,036
−78,866
−79,673
−80,455
−81,21
−81,936
−82,634
−83,301
−83,939
−84,545
−85,119
−85,663
−86,175
−86,656
−87,106
−87,526
−87,917
−88,278
−88,612
−88,92
−89,203
−89,462
−89,698
−89,914
−90,109
−90,286
−90,446
−90,59
−90,72
−90,836
−90,94
−91,034
−91,118
−91,196
−91,268
−91,336
−91,402
−91,467
−91,534
−91,603
−91,678
−91,758
−91,847
−91,946
−92,057
−92,182
−92,321
−92,477
−92,651
−92,844
−93,057
−93,29
−93,546
−93,822
−94,121
−94,441
−94,783
−95,146
−95,531
−95,935
−96,36
−96,803
−97,263
−97,74
−98,232
−98,736
−99,251
−99,775
−100,306
−100,841
−101,379
−101,916
−102,45
−102,978
−103,498
−104,007
−104,501
−104,977
−105,434
−105,868
−106,276
−106,657
−107,008
−107,327
−107,612
−107,862
−108,076
−108,252
−108,39
−108,49
−108,551
−108,573
−108,556
−108,501
−108,408
−108,28
−108,117
−107,92
−107,692
−107,435
−107,151
−106,841
−106,51
−106,159
−105,791
−105,409
−105,016
−104,615
−104,21
−103,804
−103,4
−103,002
−102,611
−102,232
−101,867
−101,519
−101,189
−100,882
−100,598
−100,341
−100,111
−99,911
−99,742
−99,606
−99,502
−99,433
−99,399
−99,399
−99,434
−99,505
−99,61
−99,749
−99,923
−100,13
−100,369
−100,64
−100,943
−101,275
−101,636
−102,025
−102,44
−102,882
−103,347
−103,836
−104,347
−104,879
−105,43
−105,999
−106,585
−107,186
−107,8
−108,424
−109,058
−109,697
−110,341
−110,987
−111,632
−112,273
−112,908
−113,533
−114,145
−114,741
−115,315
−115,865
−116,387
−116,874
−117,324
−117,732
−118,091
−118,397
−118,645
−118,828
−118,941
−118,976
−118,928
−118,789
−118,553
−118,214
−117,765
−117,202
−116,518
−115,709
−114,769
−113,697
−112,487
−111,137
−109,646
−108,012
−106,236
−104,318
−102,262
−100,071
−97,752
−95,312
−92,759
−90,103
−87,355
−84,53
−81,642
−78,708
−75,745
−72,771
−69,806
−66,87
−63,984
−61,168
−58,441
−55,823
−53,333
−50,992
−48,819
−46,831
−45,044
−43,464
−42,098
−40,954
−40,037
−39,355
−38,913
−38,711
−38,751
−39,039
−39,579
−40,373
−41,411
−42,666
−44,107
−45,705
−47,438
−49,297
−51,276
−53,357
−55,508
−57,69
−59,863
−61,998
−64,072
−66,022
−67,757
−69,25
−70,557
−71,842
−73,358
−75,296
−77,752
−80,838
−84,732
−89,51
−95,061
−101,035
−106,814
−111,863
−115,946
−118,874
−120,332
−120,101
−118,201
−114,976
−111,232
−107,767
−104,925
−103,063
−102,793
−104,655
−109,146
−116,583
−126,72
−139,347
−153,836
−167,921
−178,709
−183,322
−180,946
−174,57
−167,344
−159,32
−144,545
−110,832
−45,552
57,987
197,27
362,495
538,592
710,449
865,691
989,527
1069,886
1098,918
1071,219
992,723
873,802
722,837
551,356
368,28
183,726
15,7
−120,138
−214,93
−267,552
−289,369
−295,277
−293,554
−287,374
−274,259
−249,822
−215,185
−174,772
−133,735
−97,371
−68,418
−47,574
−35,005
−29,907
−30,867
−36,264
−44,346
−53,435
−61,914
−68,364
−71,624
−71,183
−67,301
−60,626
−52,019
−42,432
−32,814
−24,113
−17,207
−12,509
−9,996
−9,449
−10,443
−12,521
−15,242
−18,069
−20,514
−22,315
−23,355
−23,605
−23,099
−21,814
−19,729
−16,89
−13,354
−9,176
−4,408
0,927
6,772
13,027
19,571
26,27
33,027
39,792
46,527
53,201
59,791
66,263
72,608
78,843
84,979
91,029
97,006
102,921
108,805
114,702
120,661
126,738
132,976
139,407
146,064
152,974
160,153
167,613
175,356
183,37
191,645
200,162
208,893
217,815
226,904
236,13
245,474
254,909
264,403
273,924
283,43
292,884
302,26
311,532
320,683
329,717
338,643
347,498
356,339
365,215
374,16
383,2
392,335
401,56
410,867
420,238
429,654
439,094
448,521
457,905
467,196
476,302
485,106
493,447
501,116
507,914
513,65
518,14
521,242
522,831
522,798
521,063
517,553
512,196
504,931
495,686
484,414
471,13
455,893
438,826
420,122
399,99
378,658
356,374
333,354
309,804
285,926
261,898
237,906
214,146
190,833
168,206
146,499
125,911
106,593
88,639
72,08
56,916
43,113
30,608
19,341
9,256
0,292
−7,607
−14,508
−20,496
−25,69
−30,237
−34,302
−38,055
−41,627
−45,116
−48,586
−52,072
−55,589
−59,131
−62,685
−66,238
−69,776
−73,29
−76,77
−80,202
−83,549
−86,76
−89,767
−92,493
−94,884
−96,907
−98,543
−99,791
−100,663
−101,179
−101,369
−101,273
−100,925
−100,353
−99,584
−98,641
−97,555
−96,36
−95,098
−93,814
−92,544
−91,312
−90,14
−89,042
−88,027
−87,099
−86,258
−85,493
−84,801
−84,178
−83,622
−83,134
−82,712
−82,35
−82,045
−81,792
−81,585
−81,421
−81,296
−81,207
−81,152
−81,127
−81,132
−81,168
−81,235
−81,33
−81,452
−81,599
−81,77
−81,962
−82,176
−82,409
−82,661
−82,933
−83,225
−83,539
−83,875
−84,236
−84,623
−85,038
−85,483
−85,96
−86,472
−87,019
−87,603
−88,226
−88,889
−89,592
−90,336
−91,121
−91,947
−92,814
−93,721
−94,667
−95,65
−96,669
−97,723
−98,808
−99,923
−101,064
−102,229
−103,413
−104,615
−105,828
−107,051
−108,277
−109,502
−110,722
−111,931
−113,124
−114,297
−115,444
−116,561
−117,644
−118,687
−119,688
−120,643
−121,548
−122,4
−123,198
−123,938
−124,62
−125,242
−125,802
−126,302
−126,739
−127,115
−127,431
−127,686
−127,883
−128,022
−128,106
−128,135
−128,114
−128,043
−127,927
−127,767
−127,568
−127,332
−127,063
−126,765
−126,441
−126,095
−125,729
−125,349
−124,955
−124,552
−124,142
−123,728
−123,311
−122,895
−122,48
−122,069
−121,663
−121,263
−120,87
−120,484
−120,107
−119,739
−119,38
−119,031
−118,692
−118,362
−118,043
−117,733
−117,433
−117,143
−116,862
−116,59
−116,326
−116,069
−115,82
−115,578
−115,341
−115,111
−114,885
−114,665
−114,449
−114,238
−114,032
−113,831
−113,636
−113,448
−113,266
−113,091
−112,926
−112,77
−112,624
−112,49
−112,368
−112,259
−112,163
−112,082
−112,016
−111,966
−111,931
−111,912
−111,909
−111,922
−111,952
−111,997
−112,058
−112,134
−112,226
−112,333
−112,454
−112,588
−112,736
−112,897
−113,069
−113,252
−113,444
−113,644
−113,851
−114,062
−114,277
−114,493
−114,708
−114,921
−115,13
−115,334
−115,53
−115,717
−115,895
−116,062
−116,217
−116,36
−116,49
−116,607
−116,71
−116,801
−116,879
−116,946
−117,003
−117,05
−117,089
−117,121
−117,146
−117,167
−117,185
−117,201
−117,217
−117,235
−117,257
−117,286
−117,324
−117,373
−117,437
−117,519
−117,621
−117,745
−117,894
−118,07
−118,276
−118,512
−118,78
−119,082
−119,42
−119,793
−120,204
−120,651
−121,134
−121,652
−122,204
−122,787
−123,399
−124,037
−124,698
−125,379
−126,076
−126,786
−127,504
−128,226
−128,948
−129,663
−130,366
−131,049
−131,705
−132,326
−132,903
−133,429
−133,893
−134,289
−134,608
−134,843
−134,988
−135,035
−134,978
−134,812
−134,528
−134,121
−133,582
−132,903
−132,077
−131,096
−129,955
−128,652
−127,184
−125,55
−123,748
−121,783
−119,655
−117,367
−114,919
−112,305
−109,526
−106,589
−103,51
−100,307
−97,01
−93,643
−90,234
−86,818
−83,422
−80,069
−76,773
−73,533
−70,345
−67,22
−64,175
−61,24
−58,445
−55,8
−53,312
−50,984
−48,801
−46,753
−44,82
−42,96
−41,148
−39,383
−37,683
−36,103
−34,712
−33,548
−32,639
−31,997
−31,626
−31,541
−31,753
−32,255
−33,054
−34,159
−35,584
−37,375
−39,557
−42,109
−44,988
−48,112
−51,364
−54,657
−57,916
−61,052
−64,011
−66,766
−69,282
−71,565
−73,673
−75,668
−77,668
−79,858
−82,372
−85,332
−88,93
−93,29
−98,414
−104,244
−110,445
−116,46
−121,821
−125,974
−128,283
−128,38
−126,085
−121,34
−114,669
−106,992
−99,187
−92,468
−88,241
−87,521
−91,095
−99,757
−112,672
−127,119
−140,416
−149,339
−152,425
−152,5
−151,008
−145,322
−129,05
−89,541
−15,51
94,213
233,832
391,042
550,084
701,622
838,639
951,191
1031,04
1067,85
1052,432
987,094
878,665
736,973
576,6
407,177
238,938
85,728
−42,446
−136,542
−193,899
−221,43
−228,263
−224,217
−215,077
−201,222
−181,903
−156,289
−126,224
−95,552
−67,495
−44,752
−28,359
−17,953
−13,02
−12,77
−16,051
−21,755
−28,959
−36,671
−44,071
−50,563
−55,467
−58,211
−58,732
−57,222
−53,927
−49,299
−43,793
−37,782
−31,785
−26,323
−21,59
−17,566
−14,153
−11,104
−8,187
−5,238
−2,04
1,61
5,742
10,272
15,076
19,997
24,924
29,8
34,547
39,096
43,425
47,549
51,518
55,382
59,153
62,835
66,45
70,05
73,721
77,568
81,676
86,097
90,877
96,049
101,645
107,678
114,128
120,927
127,984
135,239
142,649
150,188
157,826
165,498
173,129
180,66
188,047
195,274
202,331
209,195
215,838
222,26
228,495
234,627
240,769
246,992
253,357
259,914
266,705
273,817
281,329
289,288
297,729
306,68
316,165
326,243
336,99
348,431
360,56
373,32
386,6
400,322
414,406
428,754
443,273
457,832
472,296
486,563
500,528
514,051
526,973
539,084
550,127
559,889
568,183
574,845
579,783
582,897
584,099
583,339
580,573
575,771
568,915
559,961
548,883
535,716
520,546
503,525
484,881
464,838
443,63
421,505
398,666
375,308
351,628
327,795
303,981
280,37
257,164
234,59
212,879
192,222
172,759
154,571
137,678
122,067
107,704
94,52
82,463
71,485
61,531
52,558
44,513
37,323
30,885
25,064
19,705
14,65
9,779
5,004
0,273
−4,439
−9,137
−13,809
−18,436
−23,002
−27,493
−31,899
−36,213
−40,422
−44,492
−48,375
−52,005
−55,305
−58,219
−60,717
−62,78
−64,409
−65,617
−66,426
−66,867
−66,981
−66,804
−66,367
−65,7
−64,825
−63,777
−62,594
−61,321
−60,007
−58,694
−57,411
−56,185
−55,034
−53,97
−53,005
−52,139
−51,369
−50,69
−50,104
−49,61
−49,211
−48,907
−48,693
−48,565
−48,519
−48,548
−48,648
−48,815
−49,042
−49,326
−49,662
−50,046
−50,475
−50,947
−51,456
−51,997
−52,563
−53,149
−53,751
−54,363
−54,978
−55,594
−56,205
−56,809
−57,404
−57,986
−58,555
−59,108
−59,646
−60,167
−60,673
−61,162
−61,637
−62,097
−62,543
−62,977
−63,399
−63,811
−64,215
−64,611
−65,001
−65,387
−65,77
−66,153
−66,535
−66,92
−67,308
−67,7
−68,098
−68,502
−68,914
−69,334
−69,762
−70,198
−70,643
−71,096
−71,556
−72,021
−72,492
−72,966
−73,441
−73,917
−74,391
−74,861
−75,326
−75,784
−76,234
−76,672
−77,099
−77,512
−77,911
−78,295
−78,662
−79,012
−79,345
−79,66
−79,957
−80,235
−80,496
−80,739
−80,964
−81,172
−81,363
−81,539
−81,699
−81,846
−81,979
−82,1
−82,211
−82,312
−82,406
−82,493
−82,575
−82,654
−82,732
−82,809
−82,887
−82,968
−83,053
−83,143
−83,239
−83,342
−83,452
−83,569
−83,694
−83,826
−83,965
−84,111
−84,263
−84,422
−84,585
−84,753
−84,925
−85,1
−85,277
−85,457
−85,637
−85,818
−86
−86,181
−86,362
−86,541
−86,719
−86,895
−87,069
−87,24
−87,408
−87,572
−87,732
−87,887
−88,038
−88,185
−88,327
−88,464
−88,597
−88,727
−88,854
−88,98
−89,104
−89,228
−89,353
−89,481
−89,611
−89,746
−89,885
−90,031
−90,184
−90,343
−90,511
−90,686
−90,869
−91,06
−91,259
−91,465
−91,679
−91,9
−92,128
−92,363
−92,604
−92,851
−93,104
−93,363
−93,628
−93,899
−94,174
−94,454
−94,737
−95,024
−95,313
−95,603
−95,894
−96,184
−96,473
−96,758
−97,039
−97,314
−97,584
−97,846
−98,1
−98,345
−98,581
−98,807
−99,024
−99,231
−99,429
−99,617
−99,796
−99,965
−100,126
−100,277
−100,42
−100,553
−100,676
−100,79
−100,893
−100,986
−101,069
−101,142
−101,203
−101,255
−101,297
−101,329
−101,351
−101,366
−101,372
−101,372
−101,365
−101,353
−101,337
−101,318
−101,296
−101,273
−101,249
−101,225
−101,2
−101,176
−101,152
−101,128
−101,104
−101,082
−101,061
−101,043
−101,028
−101,018
−101,014
−101,017
−101,03
−101,052
−101,086
−101,133
−101,193
−101,268
−101,359
−101,466
−101,59
−101,731
−101,89
−102,066
−102,26
−102,471
−102,698
−102,94
−103,197
−103,468
−103,752
−104,048
−104,355
−104,673
−105,002
−105,34
−105,686
−106,038
−106,393
−106,748
−107,099
−107,441
−107,769
−108,076
−108,359
−108,611
−108,827
−109,004
−109,137
−109,222
−109,256
−109,235
−109,154
−109,006
−108,786
−108,488
−108,106
−107,631
−107,059
−106,382
−105,596
−104,7
−103,689
−102,557
−101,297
−99,901
−98,363
−96,684
−94,868
−92,919
−90,853
−88,686
−86,444
−84,162
−81,875
−79,611
−77,396
−75,245
−73,173
−71,201
−69,345
−67,622
−66,04
−64,589
−63,256
−62,033
−60,903
−59,839
−58,8
−57,72
−56,543
−55,233
−53,763
−52,132
−50,338
−48,374
−46,24
−43,967
−41,62
−39,299
−37,104
−35,09
−33,299
−31,796
−30,705
−30,154
−30,175
−30,684
−31,558
−32,747
−34,345
−36,487
−39,149
−42,252
−45,851
−50,192
−55,66
−62,525
−70,626
−79,525
−88,948
−98,688
−108,36
−117,34
−124,704
−129,568
−131,711
−131,452
−129,071
−124,89
−119,445
−113,41
−107,777
−103,655
−101,534
−101,456
−103,439
−107,061
−111,797
−117,363
−123,141
−129,384
−136,845
−144,91
−153,724
−161,76
−166,137
−167,755
−166,403
−164,316
−166,822
−172,864
−179,871
−179,869
−158,364
−106,183
−17,964
103,547
247,506
404,382
565,183
723,656
872,284
996,938
1081,162
1109,499
1076,622
990,738
867,058
722,095
565,753
401,477
233,942
72,269
−69,317
−177,047
−246,564
−282,649
−294,972
−291,896
−274,792
−242,675
−197,533
−146,605
−101,404
−70,407
−54,569
−48,129
−43,698
−37,107
−29,083
−24,025
−24,712
−31,195
−41,775
−52,971
−62,593
−69,907
−74,254
−75,775
−74,893
−71,786
−66,919
−61,034
−54,698
−48,533
−43,258
−39,141
−36,166
−34,206
−32,934
−31,993
−31,125
−30,042
−28,442
−26,225
−23,392
−20,019
−16,29
−12,34
−8,241
−4,062
0,169
4,465
8,823
13,235
17,698
22,178
26,648
31,093
35,496
39,86
44,208
48,584
53,065
57,719
62,587
67,688
73,006
78,507
84,175
90,005
95,989
102,134
108,447
114,938
121,634
128,567
135,757
143,21
150,91
158,837
166,984
175,347
183,929
192,735
201,75
210,958
220,35
229,914
239,642
249,515
259,501
269,554
279,629
289,688
299,709
309,679
319,587
329,436
339,238
349,033
358,885
368,847
378,958
389,228
399,645
410,198
420,87
431,643
442,501
453,409
464,322
475,185
485,922
496,423
506,549
516,103
524,852
532,571
539,047
544,119
547,661
549,55
549,691
548,005
544,419
538,882
531,343
521,749
510,091
496,415
480,818
463,482
444,637
424,522
403,392
381,466
358,942
336,033
312,924
289,785
266,797
244,141
222,02
200,677
180,31
161,057
143,019
126,214
110,628
96,235
82,972
70,78
59,608
49,389
40,069
31,612
23,952
17,006
10,66
4,742
−0,884
−6,312
−11,622
−16,843
−21,992
−27,086
−32,105
−37,019
−41,804
−46,434
−50,893
−55,187
−59,296
−63,189
−66,818
−70,103
−72,987
−75,438
−77,433
−78,971
−80,057
−80,699
−80,924
−80,781
−80,311
−79,551
−78,535
−77,285
−75,832
−74,218
−72,485
−70,685
−68,862
−67,046
−65,268
−63,552
−61,916
−60,377
−58,942
−57,61
−56,38
−55,255
−54,238
−53,334
−52,545
−51,869
−51,303
−50,844
−50,49
−50,236
−50,08
−50,017
−50,042
−50,152
−50,343
−50,612
−50,956
−51,369
−51,845
−52,377
−52,957
−53,581
−54,239
−54,925
−55,633
−56,355
−57,086
−57,821
−58,555
−59,283
−60,001
−60,705
−61,392
−62,059
−62,704
−63,326
−63,922
−64,493
−65,038
−65,555
−66,046
−66,511
−66,95
−67,365
−67,756
−68,126
−68,475
−68,806
−69,121
−69,421
−69,71
−69,989
−70,261
−70,527
−70,789
−71,051
−71,315
−71,581
−71,851
−72,128
−72,411
−72,703
−73,004
−73,314
−73,635
−73,965
−74,306
−74,656
−75,017
−75,386
−75,764
−76,149
−76,54
−76,936
−77,337
−77,739
−78,142
−78,544
−78,943
−79,338
−79,727
−80,108
−80,479
−80,84
−81,189
−81,523
−81,842
−82,146
−82,432
−82,7
−82,949
−83,18
−83,391
−83,582
−83,754
−83,907
−84,04
−84,155
−84,252
−84,332
−84,395
−84,443
−84,476
−84,497
−84,506
−84,505
−84,497
−84,482
−84,462
−84,441
−84,419
−84,399
−84,384
−84,374
−84,373
−84,381
−84,402
−84,437
−84,487
−84,554
−84,639
−84,744
−84,869
−85,015
−85,182
−85,372
−85,583
−85,817
−86,074
−86,352
−86,652
−86,974
−87,316
−87,679
−88,06
−88,46
−88,877
−89,31
−89,757
−90,216
−90,686
−91,165
−91,65
−92,14
−92,634
−93,127
−93,619
−94,108
−94,591
−95,066
−95,532
−95,986
−96,428
−96,856
−97,269
−97,665
−98,045
−98,407
−98,751
−99,076
−99,383
−99,672
−99,941
−100,192
−100,425
−100,639
−100,836
−101,015
−101,178
−101,325
−101,458
−101,577
−101,684
−101,78
−101,866
−101,944
−102,015
−102,081
−102,143
−102,202
−102,261
−102,319
−102,38
−102,444
−102,511
−102,582
−102,658
−102,739
−102,824
−102,914
−103,009
−103,107
−103,208
−103,313
−103,419
−103,527
−103,635
−103,743
−103,85
−103,956
−104,058
−104,156
−104,25
−104,337
−104,418
−104,49
−104,554
−104,608
−104,652
−104,684
−104,703
−104,709
−104,701
−104,678
−104,641
−104,589
−104,523
−104,444
−104,352
−104,251
−104,141
−104,024
−103,904
−103,781
−103,66
−103,541
−103,429
−103,325
−103,232
−103,153
−103,091
−103,047
−103,025
−103,027
−103,055
−103,11
−103,195
−103,311
−103,46
−103,642
−103,859
−104,112
−104,402
−104,728
−105,092
−105,492
−105,927
−106,394
−106,892
−107,415
−107,958
−108,515
−109,082
−109,65
−110,214
−110,767
−111,301
−111,81
−112,288
−112,729
−113,124
−113,465
−113,743
−113,951
−114,079
−114,119
−114,062
−113,899
−113,62
−113,218
−112,689
−112,024
−111,215
−110,253
−109,126
−107,827
−106,359
−104,722
−102,924
−100,976
−98,895
−96,705
−94,438
−92,121
−89,78
−87,436
−85,104
−82,809
−80,572
−78,415
−76,36
−74,421
−72,597
−70,887
−69,281
−67,754
−66,277
−64,809
−63,294
−61,695
−59,988
−58,156
−56,2
−54,117
−51,91
−49,596
−47,199
−44,751
−42,309
−39,928
−37,666
−35,606
−33,826
−32,406
−31,445
−31,003
−31,11
−31,787
−33,032
−34,832
−37,182
−40,047
−43,361
−47,052
−51,025
−55,183
−59,476
−63,844
−68,225
−72,621
−77,044
−81,557
−86,349
−91,593
−97,35
−103,669
−110,495
−117,609
−124,905
−132,203
−139,064
−145,078
−149,84
−153,013
−154,708
−155,182
−154,256
−151,873
−148,225
−144,273
−142,242
−143,684
−148,398
−153,673
−154,962
−149,408
−137,913
−125,592
−120,108
−126,81
−144,75
−166,046
−176,255
−159,783
−106,36
−12,302
116,415
268,58
434,023
602,243
765,693
914,884
1034,353
1109,315
1127,342
1085,943
995,427
870,175
723,994
564,873
395,512
221,739
55,735
−85,912
−188,323
−246,874
−268,6
−267,163
−256,121
−242,236
−225,997
−205,359
−178,503
−147,318
−115,761
−87,257
−64,588
−48,553
−38,405
−33,311
−32,276
−34,05
−37,629
−42,243
−47,007
−51,272
−54,647
−56,66
−56,949
−55,61
−52,914
−49,16
−44,813
−40,272
−35,832
−31,877
−28,799
−26,698
−25,461
−24,901
−24,708
−24,599
−24,388
−23,846
−22,721
−20,904
−18,381
−15,172
−11,376
−7,068
−2,279
2,902
8,372
14,065
19,9
25,814
31,769
37,705
43,57
49,346
55,017
60,579
66,05
71,434
76,747
82,011
87,24
92,461
97,704
102,992
108,355
113,824
119,425
125,189
131,148
137,324
143,741
150,427
157,399
164,671
172,254
180,148
188,353
196,861
205,653
214,7
223,975
233,45
243,102
252,915
262,863
272,916
283,042
293,197
303,345
313,46
323,511
333,479
343,363
353,169
362,93
372,707
382,542
392,471
402,513
412,661
422,906
433,235
443,621
454,041
464,464
474,845
485,145
495,309
505,236
514,803
523,843
532,138
539,485
545,691
550,571
553,986
555,814
555,945
554,304
550,821
545,43
538,074
528,686
517,225
503,706
488,193
470,812
451,762
431,254
409,516
386,795
363,31
339,263
314,858
290,277
265,704
241,339
217,399
194,125
171,755
150,494
130,498
111,865
94,631
78,8
64,345
51,207
39,332
28,668
19,156
10,742
3,359
−3,078
−8,687
−13,619
−18,041
−22,124
−26,003
−29,779
−33,518
−37,257
−41,012
−44,782
−48,554
−52,315
−56,053
−59,758
−63,418
−67,018
−70,52
−73,87
−76,998
−79,826
−82,297
−84,378
−86,049
−87,31
−88,172
−88,656
−88,795
−88,628
−88,192
−87,519
−86,639
−85,577
−84,367
−83,049
−81,669
−80,275
−78,906
−77,591
−76,355
−75,214
−74,181
−73,262
−72,458
−71,763
−71,172
−70,686
−70,301
−70,021
−69,843
−69,764
−69,778
−69,88
−70,066
−70,33
−70,668
−71,075
−71,547
−72,079
−72,669
−73,314
−74,011
−74,755
−75,541
−76,362
−77,212
−78,086
−78,977
−79,881
−80,79
−81,701
−82,608
−83,509
−84,4
−85,278
−86,14
−86,984
−87,809
−88,613
−89,396
−90,157
−90,895
−91,61
−92,302
−92,971
−93,617
−94,24
−94,841
−95,421
−95,981
−96,52
−97,041
−97,544
−98,031
−98,502
−98,961
−99,407
−99,843
−100,271
−100,692
−101,109
−101,522
−101,934
−102,345
−102,757
−103,17
−103,585
−104,002
−104,422
−104,845
−105,27
−105,696
−106,124
−106,553
−106,982
−107,41
−107,836
−108,26
−108,679
−109,094
−109,504
−109,907
−110,304
−110,692
−111,072
−111,443
−111,803
−112,153
−112,49
−112,815
−113,126
−113,422
−113,703
−113,968
−114,217
−114,448
−114,662
−114,858
−115,036
−115,195
−115,337
−115,46
−115,566
−115,656
−115,729
−115,788
−115,833
−115,865
−115,886
−115,896
−115,898
−115,891
−115,878
−115,859
−115,836
−115,808
−115,778
−115,746
−115,712
−115,679
−115,646
−115,615
−115,586
−115,56
−115,537
−115,518
−115,503
−115,493
−115,488
−115,489
−115,496
−115,51
−115,53
−115,557
−115,591
−115,631
−115,677
−115,728
−115,785
−115,846
−115,91
−115,979
−116,05
−116,125
−116,201
−116,28
−116,361
−116,443
−116,527
−116,613
−116,7
−116,788
−116,877
−116,968
−117,06
−117,155
−117,252
−117,351
−117,454
−117,559
−117,668
−117,781
−117,897
−118,017
−118,141
−118,269
−118,401
−118,539
−118,681
−118,83
−118,984
−119,143
−119,309
−119,48
−119,656
−119,837
−120,021
−120,209
−120,4
−120,592
−120,786
−120,979
−121,172
−121,363
−121,552
−121,737
−121,918
−122,093
−122,261
−122,421
−122,573
−122,716
−122,85
−122,973
−123,086
−123,188
−123,28
−123,36
−123,429
−123,486
−123,531
−123,564
−123,586
−123,597
−123,598
−123,591
−123,576
−123,558
−123,536
−123,515
−123,497
−123,483
−123,476
−123,479
−123,494
−123,524
−123,57
−123,634
−123,72
−123,828
−123,961
−124,12
−124,306
−124,521
−124,763
−125,033
−125,331
−125,657
−126,008
−126,385
−126,786
−127,209
−127,653
−128,116
−128,594
−129,083
−129,58
−130,078
−130,572
−131,054
−131,516
−131,95
−132,348
−132,701
−133,001
−133,241
−133,412
−133,507
−133,522
−133,45
−133,283
−133,014
−132,634
−132,134
−131,508
−130,748
−129,845
−128,794
−127,588
−126,226
−124,71
−123,04
−121,217
−119,238
−117,099
−114,802
−112,356
−109,772
−107,061
−104,245
−101,347
−98,406
−95,469
−92,575
−89,754
−87,027
−84,405
−81,9
−79,526
−77,291
−75,203
−73,27
−71,493
−69,878
−68,435
−67,153
−66,008
−64,956
−63,925
−62,868
−61,77
−60,624
−59,444
−58,256
−57,091
−55,998
−55,042
−54,263
−53,681
−53,308
−53,139
−53,198
−53,544
−54,239
−55,358
−56,944
−58,991
−61,484
−64,414
−67,706
−71,229
−74,879
−78,56
−82,294
−86,262
−90,605
−95,377
−100,64
−106,442
−112,757
−119,514
−126,401
−132,807
−138,221
−142,35
−145,058
−146,369
−146,286
−144,721
−141,918
−138,547
−135,259
−132,544
−130,556
−129,176
−128,644
−129,66
−132,627
−137,694
−144,885
−153,935
−165,125
−178,054
−190,064
−197,945
−198,567
−190,791
−177,874
−162,222
−141,803
−110,425
−56,114
31,603
153,692
304,99
473,883
644,014
803,986
942,221
1044,919
1104,077
1111,154
1062,198
963,758
822,377
648,882
457,833
262,285
79,9
−72,243
−183,478
−250,778
−281,083
−287,058
−280,822
−268,794
−252,1
−229,412
−199,112
−163,571
−127,611
−95,682
−71,948
−58,012
−52,942
−55,097
−62,31
−72,203
−82,752
−92,215
−98,721
−100,908
−98,432
−91,521
−80,904
−67,71
−53,034
−37,902
−23,554
−11,06
−0,948
6,587
11,695
14,758
16,127
16,171
15,355
14,138
12,83
11,596
10,479
9,467
8,585
7,891
7,472
7,392
7,719
8,549
9,944
11,95
14,585
17,809
21,568
25,807
30,467
35,509
40,914
46,651
52,693
59,019
65,577
72,32
79,198
86,14
93,097
100,045
106,968
113,873
120,784
127,716
134,692
141,742
148,887
156,15
163,56
171,132
178,885
186,843
195,027
203,463
212,165
221,126
230,321
239,724
249,304
259,035
268,893
278,842
288,846
298,867
308,86
318,794
328,645
338,383
347,989
357,464
366,817
376,088
385,345
394,643
404,025
413,522
423,138
432,873
442,723
452,665
462,678
472,731
482,778
492,776
502,665
512,338
521,665
530,467
538,518
545,602
551,517
556,067
559,108
560,513
560,172
558,012
553,963
547,967
539,972
529,918
517,773
503,559
487,351
469,285
449,571
428,435
406,116
382,87
358,919
334,471
309,73
284,878
260,099
235,589
211,561
188,258
165,915
144,74
124,889
106,457
89,478
73,95
59,844
47,1
35,664
25,485
16,505
8,669
1,915
−3,842
−8,721
−12,877
−16,483
−19,722
−22,737
−25,634
−28,485
−31,332
−34,198
−37,085
−39,99
−42,905
−45,821
−48,735
−51,642
−54,531
−57,369
−60,101
−62,657
−64,951
−66,924
−68,541
−69,779
−70,638
−71,127
−71,265
−71,084
−70,624
−69,919
−69
−67,895
−66,625
−65,223
−63,729
−62,188
−60,649
−59,154
−57,729
−56,399
−55,18
−54,082
−53,11
−52,263
−51,532
−50,909
−50,391
−49,976
−49,664
−49,45
−49,33
−49,296
−49,34
−49,456
−49,637
−49,877
−50,169
−50,508
−50,889
−51,309
−51,765
−52,255
−52,774
−53,316
−53,876
−54,45
−55,033
−55,619
−56,204
−56,783
−57,352
−57,909
−58,451
−58,977
−59,484
−59,971
−60,437
−60,881
−61,303
−61,703
−62,08
−62,435
−62,767
−63,076
−63,364
−63,63
−63,875
−64,1
−64,305
−64,492
−64,66
−64,811
−64,945
−65,063
−65,165
−65,252
−65,324
−65,382
−65,426
−65,457
−65,476
−65,482
−65,477
−65,46
−65,43
−65,39
−65,337
−65,273
−65,197
−65,109
−65,011
−64,901
−64,781
−64,651
−64,511
−64,363
−64,208
−64,045
−63,876
−63,702
−63,524
−63,343
−63,161
−62,978
−62,798
−62,621
−62,449
−62,285
−62,128
−61,983
−61,849
−61,73
−61,626
−61,541
−61,475
−61,431
−61,411
−61,415
−61,446
−61,505
−61,593
−61,711
−61,859
−62,039
−62,25
−62,492
−62,766
−63,071
−63,407
−63,773
−64,168
−64,591
−65,04
−65,515
−66,014
−66,534
−67,074
−67,631
−68,205
−68,791
−69,389
−69,995
−70,608
−71,223
−71,84
−72,455
−73,066
−73,67
−74,265
−74,848
−75,417
−75,97
−76,504
−77,019
−77,512
−77,982
−78,428
−78,85
−79,245
−79,614
−79,957
−80,273
−80,562
−80,825
−81,061
−81,273
−81,459
−81,622
−81,763
−81,882
−81,981
−82,061
−82,125
−82,173
−82,208
−82,231
−82,245
−82,25
−82,25
−82,246
−82,24
−82,234
−82,23
−82,23
−82,236
−82,249
−82,272
−82,304
−82,348
−82,405
−82,475
−82,56
−82,661
−82,779
−82,914
−83,068
−83,241
−83,435
−83,65
−83,887
−84,147
−84,429
−84,733
−85,061
−85,411
−85,783
−86,178
−86,595
−87,034
−87,495
−87,978
−88,481
−89,003
−89,545
−90,103
−90,678
−91,267
−91,869
−92,483
−93,107
−93,74
−94,38
−95,025
−95,673
−96,319
−96,962
−97,596
−98,218
−98,821
−99,4
−99,949
−100,464
−100,938
−101,366
−101,745
−102,069
−102,336
−102,542
−102,683
−102,754
−102,749
−102,663
−102,487
−102,216
−101,843
−101,361
−100,765
−100,052
−99,219
−98,267
−97,197
−96,007
−94,695
−93,254
−91,685
−89,993
−88,184
−86,271
−84,273
−82,214
−80,131
−78,064
−76,044
−74,094
−72,23
−70,457
−68,781
−67,207
−65,731
−64,366
−63,12
−61,995
−61,005
−60,156
−59,431
−58,806
−58,229
−57,636
−56,992
−56,277
−55,488
−54,651
−53,794
−52,961
−52,227
−51,64
−51,237
−51,042
−51,038
−51,217
−51,603
−52,23
−53,173
−54,514
−56,277
−58,464
−61,056
−63,995
−67,238
−70,682
−74,125
−77,445
−80,62
−83,736
−87,049
−90,749
−94,846
−99,373
−104,397
−109,885
−115,758
−121,659
−126,896
−130,985
−133,795
−135,352
−135,773
−135,088
−133,24
−130,668
−128,124
−126,06
−124,689
−123,755
−123,586
−125,675
−130,33
−136,917
−143,535
−146,5
−146,786
−147,97
−151,786
−161,257
−173,566
−182,735
−189,208
−191,753
−187,465
−172,59
−133,856
−57,965
57,931
210,567
387,513
569,201
742,174
894,135
1011,102
1085,447
1109,011
1077,324
996,686
874,419
720,783
548,233
366,559
188,321
27,542
−103,724
−198,637
−258,173
−290,126
−305,895
−312,646
−312,539
−304,549
−285,601
−256,434
−221,118
−184,187
−150,176
−121,597
−99,137
−83,064
−73,138
−68,6
−68,217
−70,539
−74,343
−78,42
−81,72
−83,309
−82,294
−78,472
−72,303
−64,458
−55,665
−46,687
−38,173
−30,798
−25,287
−21,935
−20,661
−21,195
−23,103
−25,951
−29,358
−32,915
−36,181
−38,845
−40,727
−41,713
−41,798
−40,999
−39,318
−36,792
−33,477
−29,427
−24,704
−19,395
−13,573
−7,318
−0,726
6,126
13,15
20,247
27,34
34,368
41,291
48,096
54,777
61,331
67,764
74,099
80,363
86,597
92,838
99,113
105,456
111,906
118,506
125,313
132,37
139,701
147,325
155,249
163,473
171,992
180,788
189,826
199,072
208,494
218,064
227,768
237,585
247,484
257,431
267,379
277,288
287,131
296,886
306,541
316,095
325,558
334,965
344,377
353,851
363,432
373,14
382,963
392,885
402,885
412,944
423,04
433,143
443,207
453,175
462,983
472,537
481,721
490,373
498,276
505,214
510,979
515,407
518,387
519,827
519,641
517,756
514,115
508,671
501,396
492,269
481,258
468,373
453,667
437,268
419,379
400,233
380,068
359,092
337,474
315,375
292,961
270,395
247,828
225,41
203,297
181,667
160,74
140,721
121,764
103,954
87,306
71,799
57,398
44,079
31,822
20,604
10,391
1,142
−7,174
−14,592
−21,176
−27,029
−32,307
−37,18
−41,777
−46,185
−50,454
−54,606
−58,656
−62,622
−66,504
−70,295
−73,991
−77,586
−81,088
−84,509
−87,837
−91,036
−94,041
−96,77
−99,169
−101,208
−102,873
−104,164
−105,087
−105,654
−105,895
−105,85
−105,554
−105,037
−104,32
−103,42
−102,363
−101,185
−99,928
−98,641
−97,361
−96,116
−94,93
−93,821
−92,803
−91,884
−91,066
−90,339
−89,699
−89,145
−88,677
−88,297
−88,002
−87,789
−87,654
−87,591
−87,594
−87,661
−87,785
−87,961
−88,185
−88,453
−88,763
−89,113
−89,5
−89,921
−90,371
−90,847
−91,343
−91,857
−92,383
−92,917
−93,455
−93,993
−94,53
−95,062
−95,587
−96,104
−96,612
−97,109
−97,596
−98,071
−98,536
−98,989
−99,432
−99,864
−100,287
−100,7
−101,104
−101,5
−101,888
−102,27
−102,647
−103,018
−103,386
−103,749
−104,11
−104,469
−104,826
−105,182
−105,536
−105,89
−106,245
−106,6
−106,957
−107,315
−107,675
−108,037
−108,402
−108,769
−109,138
−109,508
−109,881
−110,254
−110,628
−111,001
−111,374
−111,746
−112,115
−112,481
−112,842
−113,198
−113,548
−113,89
−114,224
−114,548
−114,863
−115,167
−115,459
−115,738
−116,005
−116,257
−116,495
−116,716
−116,921
−117,109
−117,277
−117,427
−117,555
−117,662
−117,747
−117,808
−117,845
−117,857
−117,843
−117,803
−117,737
−117,645
−117,526
−117,381
−117,212
−117,019
−116,803
−116,565
−116,307
−116,031
−115,737
−115,428
−115,105
−114,771
−114,427
−114,077
−113,722
−113,366
−113,012
−112,664
−112,324
−111,996
−111,683
−111,389
−111,117
−110,87
−110,653
−110,469
−110,321
−110,212
−110,145
−110,124
−110,152
−110,23
−110,36
−110,544
−110,781
−111,073
−111,42
−111,821
−112,275
−112,783
−113,342
−113,951
−114,608
−115,311
−116,056
−116,838
−117,654
−118,495
−119,357
−120,231
−121,109
−121,986
−122,852
−123,702
−124,527
−125,32
−126,076
−126,788
−127,448
−128,047
−128,577
−129,026
−129,386
−129,647
−129,801
−129,837
−129,747
−129,522
−129,16
−128,657
−128,008
−127,205
−126,237
−125,101
−123,797
−122,33
−120,708
−118,943
−117,048
−115,047
−112,974
−110,861
−108,741
−106,637
−104,555
−102,507
−100,509
−98,574
−96,723
−94,96
−93,271
−91,651
−90,095
−88,593
−87,139
−85,702
−84,226
−82,668
−80,992
−79,183
−77,258
−75,232
−73,12
−70,951
−68,758
−66,599
−64,569
−62,735
−61,149
−59,861
−58,905
−58,338
−58,246
−58,686
−59,703
−61,317
−63,519
−66,29
−69,597
−73,372
−77,532
−81,954
−86,493
−91,015
−95,379
−99,53
−103,507
−107,388
−111,331
−115,482
−119,897
−124,729
−130,198
−136,267
−142,754
−149,282
−155,135
−159,855
−163,254
−164,894
−164,343
−161,574
−156,711
−150,388
−143,889
−137,997
−133,233
−130,646
−131,151
−135,23
−143,394
−155,464
−170,366
−187,754
−206,206
−221,815
−231,161
−231,306
−221,613
−206,5
−188,905
−166,467
−132,577
−75,347
14,812
137,508
286,681
451,475
617,612
774,362
908,332
1002,741
1045,986
1030,195
958,397
844,551
702,042
543,547
376,885
207,531
46,138
−94,87
−203,158
−272,793
−308,013
−318,585
−315,899
−306,505
−291,393
−269,57
−239,783
−204,173
−167,132
−132,488
−103,677
−82,264
−68,174
−61,033
−59,757
−62,69
−68,361
−75,526
−82,834
−89,23
−93,842
−95,799
−94,93
−91,687
−86,642
−80,464
−73,894
−67,506
−61,888
−57,674
−55,042
−53,854
−53,859
−54,659
−55,877
−57,205
−58,302
−58,824
−58,589
−57,532
−55,636
−52,94
−49,474
−45,272
−40,417
−35,028
−29,228
−23,108
−16,749
−10,225
−3,6
3,056
9,709
16,357
23,005
29,655
36,298
42,906
49,463
55,972
62,437
68,884
75,343
81,83
88,375
95,015
101,765
108,635
115,604
122,623
129,666
136,72
143,779
150,866
157,995
165,174
172,439
179,813
187,311
194,959
202,756
210,693
218,783
227,041
235,508
244,256
253,321
262,719
272,477
282,597
293,094
303,992
315,263
326,877
338,815
351,041
363,543
376,307
389,281
402,406
415,599
428,75
441,772
454,582
467,051
479,044
490,392
500,898
510,407
518,774
525,837
531,441
535,428
537,652
538,016
536,444
532,862
527,214
519,427
509,449
497,303
483,064
466,862
448,876
429,285
408,278
386,08
362,936
339,091
314,784
290,221
265,6
241,142
217,093
193,726
171,301
150,01
129,985
111,309
94,022
78,142
63,667
50,544
38,696
28,041
18,498
10,001
2,483
−4,165
−10,087
−15,466
−20,491
−25,305
−30,014
−34,697
−39,405
−44,18
−49,041
−53,974
−58,942
−63,917
−68,871
−73,79
−78,66
−83,44
−88,068
−92,461
−96,526
−100,199
−103,441
−106,221
−108,527
−110,354
−111,709
−112,622
−113,137
−113,291
−113,118
−112,644
−111,895
−110,906
−109,723
−108,394
−106,973
−105,501
−104,011
−102,532
−101,085
−99,688
−98,353
−97,083
−95,874
−94,726
−93,64
−92,62
−91,669
−90,791
−89,981
−89,24
−88,564
−87,952
−87,401
−86,909
−86,475
−86,097
−85,774
−85,505
−85,291
−85,131
−85,022
−84,962
−84,946
−84,969
−85,029
−85,121
−85,24
−85,383
−85,546
−85,727
−85,922
−86,131
−86,351
−86,58
−86,817
−87,061
−87,311
−87,567
−87,826
−88,09
−88,357
−88,627
−88,898
−89,172
−89,447
−89,723
−90,001
−90,28
−90,561
−90,844
−91,129
−91,417
−91,708
−92,003
−92,304
−92,609
−92,921
−93,239
−93,564
−93,897
−94,237
−94,585
−94,939
−95,299
−95,664
−96,034
−96,407
−96,781
−97,157
−97,532
−97,904
−98,274
−98,64
−99
−99,354
−99,7
−100,037
−100,365
−100,683
−100,988
−101,281
−101,561
−101,826
−102,076
−102,31
−102,527
−102,726
−102,907
−103,071
−103,215
−103,341
−103,449
−103,539
−103,612
−103,668
−103,708
−103,734
−103,747
−103,748
−103,739
−103,721
−103,695
−103,664
−103,628
−103,589
−103,549
−103,508
−103,469
−103,432
−103,399
−103,37
−103,348
−103,332
−103,324
−103,326
−103,338
−103,361
−103,395
−103,443
−103,503
−103,576
−103,663
−103,762
−103,874
−103,998
−104,132
−104,276
−104,429
−104,588
−104,754
−104,923
−105,096
−105,27
−105,443
−105,615
−105,783
−105,948
−106,106
−106,258
−106,403
−106,539
−106,666
−106,783
−106,89
−106,986
−107,071
−107,144
−107,205
−107,253
−107,289
−107,311
−107,32
−107,317
−107,302
−107,277
−107,243
−107,201
−107,155
−107,106
−107,057
−107,009
−106,964
−106,925
−106,895
−106,874
−106,865
−106,87
−106,89
−106,928
−106,984
−107,06
−107,157
−107,275
−107,414
−107,574
−107,755
−107,957
−108,179
−108,42
−108,681
−108,96
−109,257
−109,57
−109,897
−110,236
−110,583
−110,935
−111,286
−111,629
−111,958
−112,268
−112,552
−112,803
−113,016
−113,185
−113,304
−113,369
−113,376
−113,32
−113,193
−112,988
−112,699
−112,318
−111,839
−111,255
−110,559
−109,744
−108,805
−107,741
−106,549
−105,227
−103,769
−102,165
−100,413
−98,516
−96,478
−94,311
−92,026
−89,637
−87,17
−84,659
−82,139
−79,645
−77,198
−74,809
−72,489
−70,253
−68,117
−66,099
−64,203
−62,413
−60,722
−59,126
−57,615
−56,183
−54,8
−53,409
−51,965
−50,427
−48,779
−47,033
−45,203
−43,302
−41,357
−39,401
−37,494
−35,73
−34,179
−32,888
−31,902
−31,24
−30,946
−31,103
−31,765
−32,981
−34,778
−37,134
−40,018
−43,392
−47,183
−51,308
−55,658
−60,064
−64,359
−68,467
−72,386
−76,225
−80,146
−84,246
−88,568
−93,199
−98,301
−103,955
−110,051
−116,263
−122,06
−126,974
−130,788
−133,323
−134,224
−133,208
−130,276
−125,725
−120,285
−114,765
−109,674
−105,524
−103,124
−103,394
−107,094
−114,645
−126,047
−140,387
−155,893
−170,449
−181,238
−186,89
−188,401
−186,611
−181,471
−168,182
−137,319
−79,78
11,648
135,552
283,968
447,733
613,446
770,853
910,225
1016,456
1079,436
1092,027
1051,001
965,154
844,321
695,562
528,28
349,406
169,118
6,11
−123,634
−211,876
−259,15
−277,425
−280,313
−272,68
−253,786
−220,725
−172,659
−118,25
−69,64
−34,898
−16,921
−10,917
−9,978
−10,333
−11,278
−15,078
−23,198
−34,81
−47,645
−58,525
−65,455
−68,086
−66,807
−62,533
−56,2
−48,525
−40,382
−32,739
−26,41
−21,818
−18,967
−17,633
−17,46
−18,078
−19,122
−20,155
−20,74
−20,636
−19,767
−18,143
−15,845
−12,936
−9,439
−5,416
−0,945
3,93
9,177
14,77
20,696
26,911
33,344
39,941
46,641
53,405
60,219
67,066
73,918
80,76
87,566
94,302
100,944
107,449
113,757
119,837
125,666
131,234
136,558
141,649
146,531
151,249
155,839
160,345
164,838
169,381
174,049
178,944
184,153
189,758
195,866
202,547
209,855
217,844
226,529
235,918
246,005
256,743
268,077
279,959
292,305
305,029
318,051
331,253
344,552
357,898
371,217
384,459
397,582
410,514
423,199
435,596
447,651
459,341
470,642
481,511
491,93
501,881
511,33
520,252
528,573
536,151
542,847
548,517
553,007
556,218
558,069
558,469
557,35
554,654
550,326
544,33
536,627
527,164
515,9
502,829
488,003
471,565
453,693
434,579
414,436
393,445
371,765
349,575
327,046
304,332
281,591
258,989
236,701
214,943
193,961
173,945
155,037
137,31
120,779
105,445
91,287
78,283
66,408
55,622
45,876
37,129
29,342
22,443
16,344
10,903
5,93
1,275
−3,174
−7,499
−11,739
−15,924
−20,077
−24,202
−28,286
−32,316
−36,274
−40,153
−43,957
−47,665
−51,244
−54,632
−57,738
−60,497
−62,871
−64,831
−66,374
−67,502
−68,219
−68,551
−68,542
−68,231
−67,654
−66,844
−65,821
−64,618
−63,274
−61,834
−60,353
−58,872
−57,422
−56,029
−54,717
−53,5
−52,392
−51,398
−50,512
−49,731
−49,055
−48,484
−48,021
−47,667
−47,417
−47,266
−47,211
−47,248
−47,372
−47,58
−47,867
−48,227
−48,657
−49,154
−49,714
−50,333
−51,007
−51,727
−52,489
−53,284
−54,107
−54,952
−55,811
−56,678
−57,548
−58,416
−59,278
−60,13
−60,967
−61,786
−62,586
−63,363
−64,116
−64,843
−65,544
−66,217
−66,862
−67,479
−68,067
−68,628
−69,16
−69,665
−70,144
−70,597
−71,026
−71,433
−71,819
−72,186
−72,537
−72,874
−73,198
−73,513
−73,821
−74,124
−74,424
−74,725
−75,026
−75,331
−75,642
−75,959
−76,284
−76,618
−76,962
−77,318
−77,684
−78,062
−78,452
−78,853
−79,266
−79,691
−80,126
−80,572
−81,027
−81,492
−81,966
−82,448
−82,937
−83,432
−83,933
−84,437
−84,944
−85,452
−85,959
−86,465
−86,967
−87,465
−87,956
−88,439
−88,912
−89,375
−89,825
−90,261
−90,681
−91,085
−91,471
−91,838
−92,185
−92,511
−92,817
−93,101
−93,364
−93,605
−93,824
−94,021
−94,197
−94,35
−94,482
−94,593
−94,683
−94,753
−94,804
−94,836
−94,85
−94,847
−94,829
−94,797
−94,751
−94,694
−94,626
−94,549
−94,465
−94,375
−94,28
−94,184
−94,086
−93,99
−93,896
−93,806
−93,722
−93,644
−93,574
−93,513
−93,462
−93,421
−93,392
−93,374
−93,369
−93,378
−93,401
−93,438
−93,489
−93,556
−93,637
−93,732
−93,842
−93,967
−94,106
−94,258
−94,425
−94,605
−94,799
−95,005
−95,224
−95,454
−95,694
−95,945
−96,205
−96,472
−96,748
−97,029
−97,317
−97,61
−97,908
−98,211
−98,517
−98,826
−99,138
−99,451
−99,766
−100,082
−100,397
−100,713
−101,028
−101,342
−101,655
−101,966
−102,274
−102,58
−102,882
−103,179
−103,471
−103,757
−104,036
−104,306
−104,568
−104,82
−105,062
−105,293
−105,511
−105,717
−105,91
−106,088
−106,251
−106,398
−106,529
−106,642
−106,737
−106,814
−106,873
−106,913
−106,934
−106,936
−106,919
−106,883
−106,828
−106,754
−106,662
−106,553
−106,426
−106,284
−106,127
−105,958
−105,777
−105,586
−105,387
−105,183
−104,974
−104,764
−104,555
−104,347
−104,145
−103,949
−103,762
−103,587
−103,426
−103,28
−103,151
−103,041
−102,95
−102,882
−102,835
−102,812
−102,812
−102,837
−102,885
−102,959
−103,056
−103,177
−103,322
−103,488
−103,675
−103,881
−104,104
−104,341
−104,591
−104,851
−105,118
−105,389
−105,662
−105,932
−106,197
−106,454
−106,699
−106,929
−107,14
−107,331
−107,498
−107,638
−107,751
−107,833
−107,883
−107,9
−107,884
−107,833
−107,747
−107,627
−107,472
−107,283
−107,06
−106,806
−106,522
−106,21
−105,872
−105,511
−105,131
−104,733
−104,323
−103,902
−103,475
−103,046
−102,619
−102,198
−101,788
−101,393
−101,017
−100,665
−100,339
−100,043
−99,78
−99,553
−99,363
−99,211
−99,098
−99,025
−98,991
−98,996
−99,039
−99,118
−99,23
−99,373
−99,544
−99,738
−99,951
−100,177
−100,411
−100,646
−100,877
−101,097
−101,298
−101,474
−101,617
−101,719
−101,77
−101,764
−101,69
−101,539
−101,303
−100,973
−100,541
−100,001
−99,346
−98,57
−97,667
−96,633
−95,465
−94,161
−92,717
−91,134
−89,411
−87,549
−85,553
−83,426
−81,174
−78,805
−76,33
−73,758
−71,104
−68,38
−65,603
−62,79
−59,96
−57,131
−54,322
−51,553
−48,847
−46,224
−43,705
−41,311
−39,061
−36,976
−35,073
−33,371
−31,885
−30,626
−29,599
−28,809
−28,257
−27,947
−27,889
−28,085
−28,537
−29,247
−30,216
−31,443
−32,922
−34,639
−36,559
−38,645
−40,861
−43,177
−45,579
−48,057
−50,588
−53,137
−55,653
−58,088
−60,404
−62,566
−64,514
−66,173
−67,519
−68,619
−69,642
−70,823
−72,362
−74,383
−77,015
−80,466
−84,826
−89,976
−95,608
−101,187
−106,203
−110,371
−113,367
−114,662
−113,884
−111,004
−106,303
−100,516
−94,478
−88,753
−84,065
−81,552
−82,356
−87,305
−96,746
−110,441
−127,132
−144,775
−160,973
−172,424
−177,329
−176,163
−168,961
−155,354
−131,02
−87,772
−18,956
79,955
206,327
352,511
510,916
670,502
821,698
952,864
1047,188
1093,314
1085,166
1025,315
927,451
804,638
665,085
513,691
353,083
190,087
39,982
−81,111
−164,309
−209,351
−226,498
−229,715
−226,47
−219,105
−206,164
−184,525
−155,3
−122,38
−89,659
−60,884
−38,177
−21,994
−12,219
−8,332
−9,351
−14,02
−21,244
−29,975
−38,878
−46,814
−52,792
−55,893
−55,923
−53,181
−47,991
−40,868
−32,546
−23,689
−15,058
−7,445
−1,162
3,762
7,377
9,935
11,717
12,968
14,004
15,122
16,44
17,984
19,731
21,592
23,538
25,562
27,656
29,854
32,199
34,738
37,536
40,626
44,011
47,687
51,643
55,871
60,375
65,151
70,195
75,515
81,106
86,96
93,051
99,324
105,734
112,248
118,833
125,478
132,181
138,938
145,761
152,675
159,7
166,864
174,193
181,692
189,377
197,259
205,35
213,669
222,222
230,992
239,968
249,13
258,461
267,951
277,575
287,298
297,084
306,89
316,678
326,425
336,101
345,683
355,168
364,56
373,882
383,194
392,539
401,955
411,471
421,08
430,776
440,551
450,382
460,244
470,108
479,926
489,655
499,247
508,611
517,636
526,173
534,016
540,967
546,837
551,439
554,641
556,333
556,406
554,789
551,424
546,255
539,246
530,354
519,529
506,772
492,133
475,709
457,685
438,266
417,661
396,109
373,81
350,947
327,713
304,282
280,81
257,47
234,441
211,916
190,133
169,304
149,587
131,097
113,876
97,927
83,24
69,77
57,475
46,316
36,24
27,194
19,143
12,024
5,755
0,228
−4,717
−9,252
−13,506
−17,58
−21,539
−25,415
−29,235
−33,008
−36,72
−40,36
−43,915
−47,369
−50,725
−53,978
−57,107
−60,077
−62,821
−65,263
−67,351
−69,052
−70,35
−71,246
−71,747
−71,867
−71,641
−71,113
−70,321
−69,301
−68,081
−66,684
−65,144
−63,498
−61,79
−60,069
−58,375
−56,737
−55,179
−53,72
−52,376
−51,157
−50,064
−49,09
−48,234
−47,492
−46,865
−46,354
−45,956
−45,667
−45,481
−45,393
−45,397
−45,488
−45,659
−45,904
−46,217
−46,593
−47,027
−47,515
−48,052
−48,633
−49,251
−49,9
−50,573
−51,265
−51,969
−52,679
−53,391
−54,099
−54,799
−55,488
−56,162
−56,819
−57,457
−58,073
−58,668
−59,24
−59,79
−60,318
−60,825
−61,312
−61,78
−62,23
−62,665
−63,085
−63,494
−63,893
−64,286
−64,674
−65,06
−65,446
−65,836
−66,231
−66,634
−67,046
−67,469
−67,904
−68,354
−68,818
−69,298
−69,795
−70,308
−70,838
−71,385
−71,949
−72,528
−73,123
−73,73
−74,35
−74,98
−75,619
−76,263
−76,912
−77,562
−78,211
−78,857
−79,496
−80,127
−80,747
−81,353
−81,941
−82,511
−83,059
−83,584
−84,083
−84,554
−84,997
−85,41
−85,792
−86,144
−86,464
−86,753
−87,01
−87,237
−87,433
−87,599
−87,736
−87,845
−87,927
−87,984
−88,017
−88,029
−88,02
−87,994
−87,952
−87,897
−87,831
−87,756
−87,674
−87,589
−87,502
−87,416
−87,335
−87,259
−87,193
−87,137
−87,094
−87,066
−87,054
−87,059
−87,083
−87,126
−87,188
−87,271
−87,374
−87,497
−87,641
−87,804
−87,987
−88,189
−88,409
−88,647
−88,901
−89,17
−89,454
−89,752
−90,061
−90,382
−90,712
−91,051
−91,397
−91,748
−92,104
−92,461
−92,819
−93,175
−93,528
−93,876
−94,217
−94,55
−94,873
−95,185
−95,484
−95,77
−96,042
−96,298
−96,539
−96,763
−96,971
−97,161
−97,333
−97,487
−97,624
−97,743
−97,843
−97,926
−97,991
−98,037
−98,066
−98,077
−98,07
−98,046
−98,005
−97,947
−97,874
−97,786
−97,685
−97,571
−97,446
−97,312
−97,17
−97,021
−96,868
−96,713
−96,556
−96,4
−96,246
−96,097
−95,954
−95,818
−95,693
−95,578
−95,475
−95,386
−95,312
−95,254
−95,213
−95,191
−95,189
−95,207
−95,247
−95,309
−95,393
−95,501
−95,633
−95,788
−95,965
−96,166
−96,387
−96,63
−96,892
−97,171
−97,467
−97,777
−98,099
−98,43
−98,768
−99,11
−99,453
−99,794
−100,129
−100,458
−100,775
−101,079
−101,367
−101,636
−101,885
−102,111
−102,312
−102,486
−102,631
−102,747
−102,831
−102,884
−102,904
−102,892
−102,848
−102,772
−102,665
−102,528
−102,363
−102,17
−101,953
−101,712
−101,45
−101,17
−100,875
−100,569
−100,255
−99,938
−99,621
−99,31
−99,008
−98,72
−98,451
−98,203
−97,981
−97,789
−97,629
−97,505
−97,42
−97,376
−97,375
−97,418
−97,508
−97,644
−97,826
−98,055
−98,328
−98,645
−99,005
−99,404
−99,841
−100,313
−100,818
−101,353
−101,912
−102,494
−103,091
−103,7
−104,312
−104,922
−105,52
−106,099
−106,651
−107,167
−107,641
−108,064
−108,429
−108,73
−108,962
−109,118
−109,193
−109,181
−109,074
−108,866
−108,552
−108,126
−107,581
−106,913
−106,116
−105,186
−104,122
−102,924
−101,589
−100,114
−98,494
−96,725
−94,815
−92,772
−90,605
−88,334
−85,976
−83,554
−81,107
−78,667
−76,268
−73,941
−71,7
−69,559
−67,535
−65,645
−63,908
−62,332
−60,907
−59,615
−58,446
−57,384
−56,411
−55,5
−54,589
−53,623
−52,563
−51,376
−50,063
−48,639
−47,114
−45,497
−43,819
−42,126
−40,493
−39,004
−37,712
−36,651
−35,85
−35,354
−35,244
−35,605
−36,497
−37,944
−39,924
−42,391
−45,302
−48,617
−52,273
−56,15
−60,072
−63,914
−67,68
−71,482
−75,503
−79,853
−84,509
−89,486
−94,927
−100,875
−107,183
−113,526
−119,344
−124,173
−127,899
−130,415
−131,372
−130,607
−128,299
−124,699
−120,357
−115,968
−111,67
−108,238
−107,666
−110,544
−116,456
−123,965
−129,428
−132,111
−134,185
−137,805
−146,12
−159,158
−173,3
−184,371
−186,67
−172,92
−136,434
−72,075
23,202
145,838
288,879
445,784
607,142
765,022
908,85
1022,052
1090,753
1104,667
1062,582
974,88
854,297
711,717
554,263
386,566
216,343
57,884
−72,842
−166,306
−221,511
−247,745
−258,611
−261,786
−259,78
−250,909
−231,821
−203,744
−170,86
−137,548
−107,907
−83,947
−65,946
−53,79
−46,939
−44,39
−44,818
−46,955
−49,792
−52,333
−53,85
−53,734
−51,383
−46,819
−40,566
−33,224
−25,437
−17,874
−11,034
−5,42
−1,569
0,377
0,564
−0,729
−3,067
−6,008
−9,164
−12,157
−14,618
−16,335
−17,195
−17,124
−16,132
−14,242
−11,477
−7,901
−3,594
1,38
6,954
13,029
19,505
26,256
33,141
40,067
46,965
53,784
60,485
67,03
73,392
79,573
85,591
91,465
97,211
102,846
108,39
113,885
119,381
124,928
130,585
136,39
142,378
148,582
155,03
161,754
168,775
176,102
183,731
191,662
199,888
208,402
217,186
226,207
235,432
244,828
254,368
264,032
273,797
283,634
293,506
303,371
313,191
322,941
332,602
342,16
351,615
360,974
370,269
379,558
388,889
398,3
407,802
417,375
426,995
436,636
446,273
455,88
465,423
474,851
484,104
493,119
501,803
510,041
517,674
524,488
530,276
534,846
538,048
539,785
539,979
538,557
535,457
530,634
524,055
515,702
505,557
493,597
479,831
464,319
447,188
428,642
408,906
388,206
366,74
344,669
322,148
299,337
276,396
253,469
230,703
208,252
186,299
165,062
144,75
125,514
107,445
90,564
74,857
60,302
46,882
34,583
23,386
13,259
4,162
−3,937
−11,076
−17,324
−22,789
−27,631
−32,024
−36,101
−39,952
−43,634
−47,177
−50,605
−53,942
−57,194
−60,36
−63,44
−66,432
−69,345
−72,19
−74,955
−77,607
−80,079
−82,293
−84,198
−85,766
−86,983
−87,853
−88,383
−88,584
−88,49
−88,141
−87,571
−86,813
−85,888
−84,816
−83,625
−82,35
−81,035
−79,728
−78,464
−77,27
−76,168
−75,174
−74,3
−73,552
−72,927
−72,415
−72,01
−71,707
−71,504
−71,399
−71,389
−71,466
−71,622
−71,851
−72,144
−72,494
−72,895
−73,337
−73,816
−74,324
−74,857
−75,413
−75,988
−76,575
−77,171
−77,77
−78,368
−78,959
−79,541
−80,108
−80,658
−81,189
−81,698
−82,186
−82,653
−83,099
−83,524
−83,931
−84,321
−84,697
−85,061
−85,414
−85,76
−86,102
−86,442
−86,782
−87,126
−87,476
−87,835
−88,205
−88,59
−88,991
−89,409
−89,847
−90,306
−90,786
−91,288
−91,813
−92,361
−92,931
−93,523
−94,136
−94,769
−95,42
−96,087
−96,767
−97,458
−98,156
−98,857
−99,56
−100,259
−100,953
−101,636
−102,307
−102,961
−103,596
−104,208
−104,795
−105,353
−105,88
−106,373
−106,832
−107,253
−107,636
−107,98
−108,285
−108,55
−108,775
−108,961
−109,109
−109,221
−109,296
−109,338
−109,349
−109,332
−109,288
−109,223
−109,138
−109,039
−108,928
−108,809
−108,687
−108,564
−108,446
−108,336
−108,236
−108,152
−108,087
−108,042
−108,023
−108,031
−108,069
−108,139
−108,242
−108,382
−108,557
−108,77
−109,021
−109,309
−109,635
−109,998
−110,397
−110,831
−111,297
−111,794
−112,319
−112,87
−113,442
−114,034
−114,641
−115,26
−115,887
−116,517
−117,148
−117,775
−118,394
−119,002
−119,595
−120,168
−120,719
−121,244
−121,741
−122,205
−122,635
−123,028
−123,382
−123,695
−123,966
−124,192
−124,374
−124,51
−124,6
−124,644
−124,642
−124,596
−124,505
−124,373
−124,2
−123,988
−123,74
−123,459
−123,148
−122,809
−122,445
−122,061
−121,659
−121,242
−120,814
−120,379
−119,939
−119,498
−119,059
−118,625
−118,199
−117,784
−117,383
−116,999
−116,634
−116,293
−115,977
−115,688
−115,43
−115,204
−115,011
−114,854
−114,733
−114,649
−114,603
−114,595
−114,625
−114,693
−114,797
−114,938
−115,114
−115,323
−115,564
−115,834
−116,133
−116,458
−116,806
−117,175
−117,564
−117,968
−118,385
−118,813
−119,248
−119,685
−120,12
−120,549
−120,963
−121,358
−121,728
−122,066
−122,366
−122,623
−122,83
−122,984
−123,079
−123,111
−123,076
−122,968
−122,781
−122,51
−122,147
−121,687
−121,123
−120,448
−119,656
−118,742
−117,703
−116,535
−115,234
−113,796
−112,212
−110,48
−108,601
−106,581
−104,427
−102,155
−99,781
−97,328
−94,829
−92,316
−89,818
−87,363
−84,968
−82,646
−80,416
−78,292
−76,291
−74,42
−72,672
−71,032
−69,493
−68,037
−66,643
−65,279
−63,889
−62,419
−60,838
−59,119
−57,255
−55,253
−53,118
−50,854
−48,508
−46,141
−43,823
−41,638
−39,63
−37,822
−36,292
−35,136
−34,404
−34,147
−34,363
−35,004
−36,132
−37,818
−40,009
−42,632
−45,677
−49,098
−52,967
−57,45
−62,47
−67,909
−73,762
−79,975
−86,428
−92,975
−99,28
−104,87
−109,517
−113,106
−115,537
−116,832
−117,076
−116,48
−115,356
−114,019
−112,741
−111,696
−110,951
−110,509
−110,324
−110,234
−110,278
−110,955
−112,804
−116,365
−122,363
−130,828
−140,679
−150,5
−158,299
−163,176
−166,959
−171,565
−176,872
−176,868
−159,631
−112,737
−27,357
94,602
242,852
405,495
569,223
725,661
868,117
984,322
1063,018
1093,725
1069,667
996,437
883,78
741,685
581,435
409,403
233,767
68,523
−72,717
−177,467
−241,236
−270,76
−277,469
−273,355
−265,033
−252,729
−234,553
−208,841
−177,331
−144,132
−112,84
−86,239
−65,368
−49,939
−39,524
−33,553
−31,015
−30,84
−32,296
−34,653
−37,236
−39,541
−40,89
−40,617
−38,704
−35,502
−31,324
−26,618
−21,794
−17,143
−13,168
−10,433
−9,104
−9,05
−10,002
−11,56
−13,387
−15,262
−16,889
−17,923
−18,145
−17,432
−15,76
−13,21
−9,855
−5,737
−0,923
4,493
10,413
16,705
23,233
29,9
36,625
43,346
50,023
56,613
63,076
69,39
75,552
81,574
87,473
93,262
98,946
104,547
110,099
115,656
121,276
127,005
132,881
138,936
145,201
151,713
158,498
165,572
172,935
180,589
188,527
196,746
205,234
213,962
222,899
232,016
241,283
250,682
260,189
269,774
279,406
289,042
298,649
308,209
317,701
327,115
336,454
345,731
354,987
364,288
373,688
383,228
392,935
402,81
412,851
423,054
433,398
443,862
454,415
465,008
475,597
486,116
496,455
506,478
516,003
524,797
532,644
539,341
544,695
548,56
550,797
551,288
549,95
546,713
541,511
534,295
525,005
513,608
500,145
484,706
467,443
448,58
428,34
406,959
384,688
361,746
338,346
314,701
290,982
267,363
244,037
221,205
199,099
177,947
157,905
139,084
121,542
105,276
90,271
76,491
63,863
52,327
41,822
32,279
23,658
15,907
8,941
2,653
−3,108
−8,507
−13,667
−18,675
−23,598
−28,464
−33,294
−38,097
−42,848
−47,521
−52,098
−56,558
−60,901
−65,125
−69,207
−73,105
−76,761
−80,096
−83,06
−85,623
−87,766
−89,486
−90,791
−91,691
−92,223
−92,43
−92,347
−92,008
−91,439
−90,66
−89,703
−88,605
−87,407
−86,156
−84,892
−83,642
−82,432
−81,282
−80,205
−79,212
−78,307
−77,482
−76,736
−76,069
−75,481
−74,976
−74,553
−74,21
−73,943
−73,748
−73,621
−73,559
−73,558
−73,613
−73,722
−73,88
−74,085
−74,338
−74,634
−74,97
−75,343
−75,749
−76,182
−76,639
−77,116
−77,609
−78,114
−78,627
−79,145
−79,668
−80,193
−80,717
−81,241
−81,762
−82,281
−82,796
−83,308
−83,818
−84,324
−84,828
−85,329
−85,829
−86,328
−86,826
−87,325
−87,824
−88,326
−88,83
−89,338
−89,85
−90,367
−90,891
−91,421
−91,958
−92,504
−93,058
−93,62
−94,192
−94,774
−95,366
−95,967
−96,577
−97,196
−97,824
−98,459
−99,102
−99,75
−100,404
−101,061
−101,722
−102,384
−103,047
−103,71
−104,371
−105,03
−105,684
−106,334
−106,978
−107,615
−108,245
−108,865
−109,476
−110,077
−110,667
−111,246
−111,812
−112,366
−112,906
−113,433
−113,946
−114,444
−114,928
−115,397
−115,851
−116,289
−116,713
−117,122
−117,515
−117,894
−118,258
−118,608
−118,943
−119,266
−119,576
−119,873
−120,158
−120,431
−120,693
−120,945
−121,185
−121,416
−121,637
−121,849
−122,051
−122,244
−122,429
−122,605
−122,772
−122,931
−123,081
−123,223
−123,356
−123,48
−123,596
−123,702
−123,8
−123,888
−123,966
−124,035
−124,094
−124,142
−124,18
−124,206
−124,221
−124,224
−124,215
−124,193
−124,159
−124,112
−124,053
−123,981
−123,897
−123,801
−123,693
−123,573
−123,443
−123,302
−123,152
−122,993
−122,825
−122,651
−122,471
−122,286
−122,097
−121,907
−121,716
−121,527
−121,341
−121,16
−120,987
−120,823
−120,671
−120,533
−120,41
−120,305
−120,22
−120,157
−120,117
−120,102
−120,113
−120,152
−120,219
−120,315
−120,441
−120,597
−120,784
−121,001
−121,25
−121,529
−121,839
−122,178
−122,546
−122,942
−123,365
−123,811
−124,279
−124,766
−125,269
−125,782
−126,301
−126,821
−127,334
−127,836
−128,32
−128,78
−129,21
−129,603
−129,955
−130,262
−130,519
−130,719
−130,858
−130,929
−130,926
−130,843
−130,674
−130,411
−130,047
−129,576
−128,991
−128,29
−127,467
−126,514
−125,425
−124,189
−122,802
−121,265
−119,583
−117,764
−115,822
−113,773
−111,644
−109,468
−107,274
−105,087
−102,93
−100,815
−98,764
−96,797
−94,93
−93,187
−91,58
−90,103
−88,753
−87,519
−86,369
−85,274
−84,186
−83,042
−81,795
−80,416
−78,882
−77,195
−75,354
−73,361
−71,233
−68,988
−66,657
−64,289
−61,938
−59,658
−57,53
−55,628
−54,042
−52,879
−52,221
−52,118
−52,599
−53,664
−55,298
−57,49
−60,221
−63,452
−67,132
−71,189
−75,546
−80,144
−84,931
−89,844
−94,793
−99,705
−104,572
−109,494
−114,68
−120,327
−126,578
−133,543
−141,29
−149,798
−158,862
−167,972
−176,342
−183,116
−187,511
−188,908
−186,909
−181,33
−172,441
−161,16
−148,85
−137,123
−127,764
−122,337
−122,015
−127,913
−139,578
−154,308
−169,156
−180,639
−186,811
−189,719
−190,141
−185,246
−168,925
−129,353
−55,837
53,146
192,631
350,933
511,924
664,997
801,759
911,647
987,263
1019,75
1001,367
935,341
827,975
687,568
526,674
353,343
177,9
16,068
−119,473
−217,929
−276,146
−301,385
−302,402
−287,433
−261,88
−228,452
−192,438
−159,755
−135,15
−119,935
−109,549
−99,386
−87,296
−73,875
−63,371
−58,517
−59,014
−63,546
−69,692
−75,565
−80,674
−84,582
−86,748
−87,068
−85,676
−82,777
−78,774
−74,152
−69,253
−64,563
−60,728
−57,986
−56,308
−55,561
−55,43
−55,622
−55,923
−56,042
−55,651
−54,587
−52,793
−50,282
−47,157
−43,488
−39,323
−34,732
−29,798
−24,585
−19,15
−13,541
−7,798
−1,97
3,884
9,722
15,518
21,255
26,931
32,553
38,133
43,691
49,25
54,831
60,45
66,125
71,874
77,718
83,68
89,783
96,045
102,488
109,136
116,008
123,128
130,511
138,164
146,092
154,293
162,761
171,485
180,446
189,615
198,963
208,465
218,096
227,841
237,68
247,582
257,52
267,451
277,341
287,165
296,893
306,504
315,997
325,375
334,664
343,916
353,175
362,471
371,83
381,242
390,687
400,146
409,586
418,982
428,298
437,489
446,511
455,311
463,814
471,924
479,509
486,388
492,378
497,304
500,997
503,34
504,248
503,651
501,496
497,738
492,343
485,286
476,548
466,101
453,934
440,064
424,564
407,58
389,295
369,912
349,644
328,669
307,141
285,209
263,018
240,714
218,443
196,352
174,605
153,396
132,947
113,466
95,106
77,949
62,028
47,339
33,86
21,58
10,486
0,556
−8,239
−15,935
−22,572
−28,197
−32,892
−36,779
−40,031
−42,834
−45,334
−47,629
−49,786
−51,842
−53,827
−55,768
−57,676
−59,552
−61,397
−63,214
−65,014
−66,805
−68,576
−70,287
−71,868
−73,235
−74,33
−75,122
−75,595
−75,748
−75,587
−75,123
−74,388
−73,422
−72,258
−70,927
−69,45
−67,843
−66,133
−64,356
−62,552
−60,771
−59,048
−57,409
−55,876
−54,464
−53,183
−52,039
−51,029
−50,14
−49,364
−48,697
−48,134
−47,676
−47,316
−47,047
−46,863
−46,755
−46,715
−46,738
−46,816
−46,942
−47,109
−47,313
−47,549
−47,816
−48,109
−48,425
−48,76
−49,108
−49,467
−49,832
−50,199
−50,566
−50,929
−51,285
−51,634
−51,974
−52,305
−52,625
−52,936
−53,239
−53,533
−53,82
−54,101
−54,376
−54,648
−54,918
−55,185
−55,451
−55,717
−55,983
−56,252
−56,523
−56,797
−57,075
−57,357
−57,644
−57,935
−58,23
−58,528
−58,83
−59,133
−59,438
−59,742
−60,047
−60,35
−60,649
−60,944
−61,233
−61,514
−61,786
−62,045
−62,291
−62,521
−62,735
−62,93
−63,104
−63,259
−63,391
−63,501
−63,587
−63,651
−63,691
−63,707
−63,7
−63,671
−63,62
−63,549
−63,458
−63,351
−63,227
−63,089
−62,94
−62,781
−62,614
−62,442
−62,266
−62,09
−61,915
−61,744
−61,579
−61,423
−61,28
−61,15
−61,037
−60,944
−60,872
−60,824
−60,801
−60,806
−60,84
−60,905
−61,002
−61,133
−61,297
−61,497
−61,731
−62,002
−62,308
−62,648
−63,024
−63,433
−63,874
−64,347
−64,851
−65,384
−65,945
−66,533
−67,146
−67,784
−68,443
−69,123
−69,822
−70,538
−71,268
−72,01
−72,762
−73,523
−74,289
−75,058
−75,828
−76,597
−77,363
−78,123
−78,875
−79,616
−80,346
−81,06
−81,759
−82,439
−83,1
−83,74
−84,358
−84,953
−85,524
−86,07
−86,591
−87,086
−87,554
−87,995
−88,407
−88,792
−89,148
−89,476
−89,776
−90,048
−90,294
−90,513
−90,708
−90,878
−91,025
−91,151
−91,257
−91,344
−91,415
−91,471
−91,514
−91,547
−91,572
−91,593
−91,61
−91,629
−91,651
−91,679
−91,716
−91,764
−91,827
−91,905
−92,002
−92,121
−92,264
−92,432
−92,629
−92,856
−93,116
−93,409
−93,738
−94,104
−94,507
−94,948
−95,427
−95,945
−96,501
−97,094
−97,726
−98,393
−99,096
−99,833
−100,6
−101,396
−102,216
−103,056
−103,91
−104,772
−105,635
−106,492
−107,338
−108,164
−108,965
−109,734
−110,464
−111,15
−111,786
−112,365
−112,88
−113,323
−113,683
−113,954
−114,125
−114,189
−114,136
−113,957
−113,644
−113,191
−112,592
−111,843
−110,934
−109,855
−108,599
−107,167
−105,561
−103,788
−101,86
−99,79
−97,599
−95,318
−92,977
−90,604
−88,228
−85,861
−83,515
−81,209
−78,957
−76,778
−74,683
−72,665
−70,709
−68,809
−66,949
−65,114
−63,282
−61,401
−59,433
−57,35
−55,127
−52,768
−50,29
−47,705
−45,037
−42,324
−39,61
−36,972
−34,505
−32,278
−30,361
−28,813
−27,684
−27,057
−26,992
−27,526
−28,69
−30,486
−32,901
−35,914
−39,474
−43,499
−47,9
−52,544
−57,288
−62,008
−66,556
−70,876
−75,003
−78,99
−82,997
−87,17
−91,556
−96,301
−101,606
−107,44
−113,672
−120,004
−125,825
−130,747
−134,625
−137,066
−137,674
−136,387
−133,218
−128,602
−123,547
−118,676
−114,404
−111,619
−111,134
−113,407
−118,979
−127,841
−139,151
−152,484
−166,59
−178,431
−185,169
−183,984
−173,523
−155,313
−130,447
−98,324
−55,389
4,471
86,641
194,126
325,596
476,37
637,901
797,125
937,638
1040,415
1090,242
1080,055
1013,702
903,827
764,065
606,164
436,604
261,759
93,374
−54,523
−166,838
−236,906
−270,449
−278,335
−273,195
−261,301
−240,496
−209,619
−170,281
−127,861
−92,016
−67,421
−52,834
−45,774
−41,508
−37,992
−37,171
−39,511
−45,089
−53,068
−60,543
−65,699
−67,777
−66,48
−62,454
−56,427
−48,923
−40,637
−32,384
−24,967
−19,137
−15,249
−13,251
−12,916
−13,88
−15,757
−18,145
−20,579
−22,621
−24,028
−24,717
−24,704
−24,062
−22,792
−20,864
−18,278
−15,054
−11,231
−6,845
−1,929
3,473
9,269
15,331
21,531
27,772
34,013
40,238
46,45
52,657
58,835
64,974
71,071
77,115
83,112
89,066
94,978
100,868
106,779
112,765
118,879
125,17
131,661
138,375
145,332
152,544
160,027
167,791
175,836
184,16
192,76
201,621
210,72
220,035
229,529
239,173
248,943
258,806
268,733
278,691
288,638
298,538
308,368
318,105
327,734
337,26
346,698
356,086
365,492
374,969
384,562
394,3
404,186
414,221
424,4
434,701
445,106
455,588
466,101
476,607
487,046
497,311
507,269
516,742
525,499
533,322
540,004
545,343
549,185
551,394
551,848
550,464
547,164
541,876
534,54
525,086
513,475
499,729
483,92
466,187
446,739
425,802
403,618
380,451
356,533
332,08
307,306
282,401
257,556
232,975
208,881
185,519
163,127
141,905
122,003
103,51
86,456
70,836
56,611
43,713
32,075
21,639
12,337
4,11
−3,113
−9,423
−14,943
−19,827
−24,246
−28,369
−32,332
−36,231
−40,131
−44,066
−48,051
−52,077
−56,128
−60,188
−64,241
−68,276
−72,279
−76,232
−80,095
−83,812
−87,311
−90,513
−93,36
−95,817
−97,865
−99,501
−100,736
−101,591
−102,097
−102,294
−102,215
−101,891
−101,348
−100,612
−99,714
−98,691
−97,586
−96,444
−95,304
−94,191
−93,128
−92,131
−91,208
−90,366
−89,604
−88,916
−88,296
−87,742
−87,255
−86,835
−86,48
−86,189
−85,956
−85,777
−85,647
−85,565
−85,526
−85,529
−85,569
−85,645
−85,757
−85,903
−86,085
−86,298
−86,54
−86,81
−87,103
−87,417
−87,751
−88,101
−88,465
−88,842
−89,23
−89,629
−90,037
−90,455
−90,88
−91,314
−91,755
−92,205
−92,663
−93,128
−93,6
−94,08
−94,567
−95,06
−95,559
−96,063
−96,572
−97,084
−97,6
−98,119
−98,639
−99,161
−99,683
−100,206
−100,727
−101,247
−101,764
−102,277
−102,786
−103,29
−103,787
−104,276
−104,756
−105,226
−105,685
−106,131
−106,563
−106,98
−107,381
−107,766
−108,134
−108,483
−108,814
−109,127
−109,423
−109,7
−109,96
−110,204
−110,432
−110,646
−110,846
−111,034
−111,211
−111,378
−111,536
−111,687
−111,833
−111,973
−112,11
−112,245
−112,38
−112,515
−112,653
−112,793
−112,939
−113,09
−113,248
−113,413
−113,587
−113,771
−113,965
−114,169
−114,384
−114,609
−114,846
−115,093
−115,35
−115,615
−115,889
−116,169
−116,455
−116,746
−117,038
−117,333
−117,626
−117,918
−118,207
−118,492
−118,77
−119,04
−119,301
−119,553
−119,792
−120,019
−120,232
−120,429
−120,612
−120,777
−120,925
−121,056
−121,167
−121,261
−121,335
−121,389
−121,425
−121,442
−121,44
−121,421
−121,385
−121,333
−121,267
−121,187
−121,096
−120,995
−120,885
−120,768
−120,645
−120,518
−120,388
−120,257
−120,126
−119,996
−119,869
−119,746
−119,628
−119,516
−119,41
−119,312
−119,222
−119,14
−119,067
−119,003
−118,948
−118,903
−118,866
−118,839
−118,821
−118,81
−118,808
−118,813
−118,824
−118,841
−118,862
−118,885
−118,911
−118,938
−118,965
−118,991
−119,015
−119,036
−119,054
−119,068
−119,078
−119,082
−119,081
−119,074
−119,06
−119,039
−119,012
−118,979
−118,94
−118,897
−118,85
−118,8
−118,748
−118,697
−118,647
−118,599
−118,553
−118,513
−118,479
−118,452
−118,433
−118,425
−118,428
−118,444
−118,476
−118,522
−118,586
−118,666
−118,764
−118,879
−119,011
−119,16
−119,326
−119,507
−119,704
−119,914
−120,137
−120,371
−120,613
−120,859
−121,107
−121,351
−121,585
−121,805
−122,002
−122,171
−122,307
−122,404
−122,455
−122,455
−122,399
−122,283
−122,102
−121,852
−121,524
−121,112
−120,607
−120,004
−119,294
−118,471
−117,527
−116,454
−115,249
−113,91
−112,437
−110,826
−109,073
−107,17
−105,115
−102,913
−100,575
−98,11
−95,532
−92,858
−90,117
−87,349
−84,593
−81,878
−79,224
−76,637
−74,129
−71,715
−69,41
−67,228
−65,168
−63,218
−61,378
−59,649
−58,032
−56,515
−55,064
−53,614
−52,115
−50,541
−48,892
−47,187
−45,444
−43,676
−41,915
−40,209
−38,634
−37,258
−36,122
−35,239
−34,622
−34,292
−34,302
−34,739
−35,666
−37,116
−39,094
−41,563
−44,493
−47,841
−51,528
−55,453
−59,467
−63,412
−67,235
−70,996
−74,815
−78,878
−83,311
−88,117
−93,379
−99,265
−105,742
−112,624
−119,514
−125,75
−130,893
−134,824
−137,296
−137,964
−136,779
−133,848
−129,675
−125,242
−121,138
−117,553
−114,99
−114,107
−115,246
−118,767
−124,642
−132,249
−141,561
−152,092
−161,628
−167,624
−167,588
−160,769
−149,507
−135,839
−119,285
−94,545
−52,32
16,002
115,718
245,106
397,382
562,787
728,883
882,913
1009,112
1091,805
1118,481
1082,652
989,083
848,654
676,35
488,191
297,333
118,406
−34,188
−149,22
−221,719
−256,202
−263,954
−257,993
−245,993
−229,69
−207,742
−177,741
−141,495
−103,651
−68,478
−40,135
−20,358
−8,793
−4,716
−6,613
−12,505
−20,736
−30,001
−38,979
−46,717
−52,47
−55,466
−55,586
−53,314
−49,227
−43,916
−38,024
−32,013
−26,37
−21,729
−18,339
−16,139
−14,958
−14,46
−14,3
−14,206
−13,878
−12,994
−11,411
−9,104
−6,094
−2,498
1,579
6,036
10,737
15,576
20,508
25,532
30,649
35,843
41,069
46,269
51,414
56,496
61,517
66,48
71,381
76,237
81,09
86,009
91,067
96,301
101,715
107,285
113
118,865
124,898
131,11
137,502
144,077
150,849
157,846
165,104
172,638
180,445
188,507
196,802
205,318
214,053
223,004
232,151
241,469
250,935
260,532
270,253
280,08
289,981
299,913
309,824
319,676
329,445
339,108
348,648
358,067
367,375
376,608
385,83
395,092
404,434
413,882
423,432
433,081
442,823
452,638
462,508
472,405
482,285
492,113
501,831
511,34
520,512
529,175
537,108
544,099
549,949
554,465
557,499
558,922
558,618
556,509
552,521
546,585
538,644
528,627
516,494
502,261
485,995
467,827
447,955
426,598
403,989
380,384
356,008
331,074
305,794
280,355
254,952
229,793
205,103
181,136
158,137
136,319
115,843
96,812
79,267
63,215
48,632
35,455
23,63
13,101
3,803
−4,324
−11,354
−17,382
−22,541
−26,993
−30,919
−34,503
−37,892
−41,194
−44,484
−47,808
−51,189
−54,629
−58,118
−61,647
−65,203
−68,776
−72,352
−75,912
−79,413
−82,794
−85,979
−88,881
−91,439
−93,616
−95,389
−96,753
−97,717
−98,3
−98,534
−98,458
−98,106
−97,509
−96,698
−95,698
−94,543
−93,275
−91,94
−90,586
−89,253
−87,97
−86,76
−85,639
−84,616
−83,698
−82,883
−82,164
−81,535
−80,994
−80,539
−80,168
−79,881
−79,671
−79,533
−79,461
−79,448
−79,49
−79,583
−79,722
−79,904
−80,126
−80,384
−80,68
−81,01
−81,37
−81,758
−82,169
−82,599
−83,044
−83,501
−83,966
−84,435
−84,906
−85,376
−85,844
−86,308
−86,766
−87,216
−87,659
−88,093
−88,519
−88,937
−89,346
−89,748
−90,143
−90,531
−90,914
−91,29
−91,662
−92,029
−92,392
−92,751
−93,107
−93,46
−93,811
−94,161
−94,509
−94,855
−95,201
−95,546
−95,89
−96,233
−96,575
−96,917
−97,257
−97,596
−97,934
−98,271
−98,607
−98,942
−99,274
−99,605
−99,933
−100,257
−100,578
−100,894
−101,204
−101,509
−101,807
−102,098
−102,382
−102,658
−102,927
−103,188
−103,44
−103,685
−103,922
−104,151
−104,372
−104,585
−104,792
−104,992
−105,186
−105,374
−105,558
−105,738
−105,914
−106,086
−106,255
−106,421
−106,583
−106,742
−106,899
−107,053
−107,205
−107,355
−107,505
−107,654
−107,803
−107,952
−108,102
−108,253
−108,404
−108,558
−108,712
−108,868
−109,025
−109,184
−109,344
−109,506
−109,668
−109,832
−109,996
−110,16
−110,324
−110,486
−110,646
−110,805
−110,961
−111,114
−111,265
−111,413
−111,558
−111,7
−111,838
−111,972
−112,102
−112,227
−112,346
−112,458
−112,564
−112,662
−112,752
−112,833
−112,905
−112,968
−113,021
−113,063
−113,094
−113,115
−113,123
−113,12
−113,105
−113,078
−113,039
−112,988
−112,926
−112,852
−112,765
−112,667
−112,556
−112,432
−112,296
−112,146
−111,983
−111,806
−111,617
−111,415
−111,2
−110,973
−110,735
−110,486
−110,227
−109,96
−109,683
−109,4
−109,11
−108,815
−108,517
−108,216
−107,915
−107,614
−107,314
−107,018
−106,726
−106,439
−106,159
−105,888
−105,627
−105,378
−105,144
−104,926
−104,727
−104,549
−104,396
−104,268
−104,169
−104,1
−104,062
−104,058
−104,088
−104,156
−104,261
−104,406
−104,591
−104,817
−105,084
−105,393
−105,742
−106,13
−106,557
−107,021
−107,521
−108,055
−108,621
−109,216
−109,838
−110,484
−111,151
−111,833
−112,525
−113,222
−113,917
−114,603
−115,274
−115,919
−116,532
−117,106
−117,631
−118,103
−118,514
−118,855
−119,119
−119,301
−119,391
−119,383
−119,266
−119,032
−118,67
−118,174
−117,538
−116,757
−115,826
−114,741
−113,498
−112,1
−110,546
−108,836
−106,967
−104,931
−102,729
−100,374
−97,88
−95,27
−92,565
−89,785
−86,955
−84,109
−81,272
−78,463
−75,689
−72,945
−70,234
−67,575
−64,989
−62,514
−60,171
−57,963
−55,896
−53,969
−52,177
−50,517
−48,967
−47,484
−46,057
−44,696
−43,436
−42,346
−41,468
−40,822
−40,422
−40,262
−40,342
−40,666
−41,229
−42,014
−43,014
−44,227
−45,675
−47,413
−49,457
−51,777
−54,299
−56,917
−59,543
−62,108
−64,575
−66,903
−69,031
−70,997
−72,907
−74,914
−77,251
−80,087
−83,457
−87,444
−92,202
−97,683
−103,775
−110,245
−116,527
−122,233
−127,166
−130,881
−132,906
−133,072
−131,258
−127,649
−123,026
−117,907
−112,694
−108,289
−105,686
−105,739
−109,304
−116,826
−127,244
−138,668
−149,318
−156,508
−159,333
−159,348
−155,962
−147,732
−130,04
−93,241
−31,182
59,459
178,373
319,1
476,451
642,938
806,635
952,454
1060,117
1113,165
1103,879
1036,111
923,569
780,099
617,833
444,103
265,871
96,197
−50,138
−158,937
−224,36
−252,836
−257,137
−251,31
−243,041
−232,676
−217,569
−194,965
−166,239
−135,599
−106,949
−83,581
−66,636
−55,662
−50,074
−48,78
−50,334
−53,538
−57,454
−61,072
−63,62
−64,449
−62,796
−58,482
−51,907
−43,554
−33,982
−23,886
−13,834
−4,469
3,429
9,526
13,835
16,481
17,78
18,051
17,548
16,621
15,649
14,831
14,276
14,029
14,06
14,419
15,173
16,352
18,002
20,142
22,775
25,908
29,523
33,575
38,018
42,8
47,876
53,231
58,842
64,693
70,775
77,052
83,486
90,039
96,648
103,272
109,891
116,492
123,084
129,688
136,316
142,992
149,751
156,614
163,611
170,761
178,071
185,554
193,223
201,093
209,181
217,49
226,002
234,699
243,558
252,557
261,683
270,912
280,211
289,542
298,863
308,139
317,35
326,482
335,523
344,479
353,36
362,203
371,078
380,04
389,135
398,384
407,772
417,284
426,903
436,608
446,376
456,172
465,941
475,62
485,138
494,397
503,269
511,581
519,106
525,623
530,928
534,861
537,315
538,202
537,441
534,964
530,725
524,69
516,843
507,17
495,649
482,299
467,188
450,457
432,32
413,015
392,774
371,802
350,265
328,321
306,131
283,852
261,622
239,58
217,872
196,668
176,177
156,593
138,051
120,623
104,316
89,1
74,942
61,815
49,697
38,564
28,381
19,109
10,724
3,193
−3,546
−9,591
−15,093
−20,213
−25,069
−29,741
−34,273
−38,682
−42,984
−47,191
−51,302
−55,309
−59,206
−62,989
−66,666
−70,247
−73,721
−77,053
−80,179
−83,022
−85,53
−87,676
−89,447
−90,844
−91,874
−92,547
−92,896
−92,958
−92,768
−92,354
−91,737
−90,933
−89,97
−88,88
−87,704
−86,489
−85,272
−84,078
−82,931
−81,848
−80,842
−79,922
−79,087
−78,33
−77,646
−77,035
−76,496
−76,03
−75,637
−75,312
−75,052
−74,852
−74,709
−74,618
−74,577
−74,58
−74,624
−74,707
−74,827
−74,983
−75,174
−75,396
−75,647
−75,924
−76,223
−76,541
−76,876
−77,223
−77,581
−77,947
−78,319
−78,697
−79,079
−79,464
−79,853
−80,247
−80,645
−81,05
−81,461
−81,88
−82,308
−82,747
−83,195
−83,655
−84,126
−84,608
−85,103
−85,609
−86,127
−86,658
−87,199
−87,751
−88,314
−88,885
−89,465
−90,052
−90,644
−91,241
−91,841
−92,443
−93,046
−93,649
−94,249
−94,845
−95,436
−96,02
−96,595
−97,159
−97,709
−98,244
−98,762
−99,261
−99,741
−100,198
−100,634
−101,046
−101,434
−101,798
−102,138
−102,454
−102,748
−103,018
−103,268
−103,497
−103,708
−103,903
−104,082
−104,247
−104,401
−104,546
−104,682
−104,811
−104,934
−105,054
−105,171
−105,286
−105,401
−105,516
−105,633
−105,754
−105,878
−106,008
−106,143
−106,285
−106,434
−106,59
−106,755
−106,928
−107,11
−107,3
−107,498
−107,704
−107,918
−108,138
−108,363
−108,593
−108,825
−109,059
−109,293
−109,528
−109,762
−109,995
−110,227
−110,458
−110,69
−110,922
−111,155
−111,389
−111,625
−111,865
−112,109
−112,357
−112,61
−112,87
−113,138
−113,415
−113,702
−113,999
−114,306
−114,624
−114,952
−115,292
−115,642
−116,002
−116,373
−116,753
−117,144
−117,546
−117,957
−118,376
−118,802
−119,232
−119,663
−120,09
−120,508
−120,91
−121,292
−121,648
−121,971
−122,257
−122,5
−122,694
−122,836
−122,921
−122,944
−122,897
−122,771
−122,559
−122,255
−121,85
−121,336
−120,706
−119,951
−119,068
−118,055
−116,912
−115,634
−114,215
−112,646
−110,924
−109,052
−107,037
−104,884
−102,604
−100,214
−97,74
−95,221
−92,695
−90,194
−87,734
−85,326
−82,981
−80,711
−78,531
−76,452
−74,471
−72,578
−70,772
−69,056
−67,432
−65,888
−64,388
−62,872
−61,286
−59,598
−57,798
−55,897
−53,903
−51,839
−49,741
−47,657
−45,672
−43,861
−42,278
−40,956
−39,92
−39,189
−38,819
−38,892
−39,475
−40,621
−42,346
−44,627
−47,44
−50,724
−54,394
−58,36
−62,452
−66,484
−70,366
−74,071
−77,677
−81,384
−85,283
−89,367
−93,715
−98,421
−103,517
−108,988
−114,496
−119,466
−123,542
−126,5
−128,171
−128,421
−126,982
−123,615
−118,644
−112,755
−106,49
−100,46
−95,168
−91,091
−89,175
−90,54
−95,792
−105,129
−118,828
−135,88
−153,788
−170,1
−181,712
−187,37
−190,288
−192,474
−191,715
−181,324
−147,399
−76,946
32,443
175,145
337,823
503,177
660,849
803,561
922,067
1008,289
1051,631
1043,957
987,717
891,198
765,474
620,027
459,546
289,303
118,8
−35,513
−156,392
−235,606
−273,504
−281,038
−272,6
−253,959
−228,995
−199,925
−166,604
−135,53
−110,944
−91,494
−77,144
−64,935
−53,342
−45,426
−42,402
−44,346
−50,389
−57,861
−64,938
−70,838
−75,066
−77,365
−77,4
−75,135
−70,898
−65,079
−58,194
−50,691
−42,893
−35,286
−28,372
−22,337
−17,188
−12,846
−9,12
−5,879
−3,021
−0,351
2,327
5,098
7,957
10,84
13,647
16,33
18,865
21,221
23,379
25,341
27,158
28,927
30,742
32,692
34,83
37,19
39,812
42,741
46,016
49,677
53,745
58,227
63,139
68,492
74,28
80,489
87,077
93,975
101,127
108,491
116,037
123,758
131,651
139,708
147,929
156,32
164,882
173,62
182,527
191,576
200,743
210,01
219,369
228,828
238,391
248,048
257,783
267,569
277,368
287,149
296,883
306,53
316,064
325,48
334,781
344,004
353,206
362,431
371,711
381,065
390,486
399,968
409,501
419,057
428,616
438,149
