Nimi,Mikko Happonen
Syntymäaika,"20.5.2002"
Tallennuspäivä,2024-12-26 16:13:42 +0200
Luokitus,Sinusrytmi
Oireet,
Ohjelmistoversio,1.90
Laite,"Watch7,8"
Näytetaajuus,512 hertsiä


Kytkentä,I-kytkentä
Yksikkö,µV

−140,472
−155,425
−160,916
−156,193
−147,347
−139,154
−136,568
−140,563
−146,767
−152,452
−156,014
−157,16
−157,56
−157,893
−158,035
−157,91
−157,255
−156,062
−154,492
−152,534
−150,212
−147,583
−144,697
−141,625
−138,358
−134,844
−131,038
−126,893
−122,386
−117,504
−112,232
−106,556
−100,475
−93,989
−87,103
−79,834
−72,196
−64,194
−55,831
−47,097
−37,984
−28,503
−18,684
−8,564
1,82
12,435
23,244
34,206
45,264
56,374
67,5
78,617
89,7
100,714
111,614
122,354
132,894
143,202
153,26
163,051
172,562
181,795
190,765
199,492
208,008
216,324
224,432
232,325
239,984
247,398
254,564
261,469
268,092
274,415
280,401
286,005
291,172
295,814
299,824
303,096
305,522
307,021
307,534
307,002
305,378
302,621
298,686
293,541
287,158
279,505
270,576
260,396
249,022
236,555
223,13
208,875
193,929
178,42
162,471
146,215
129,782
113,296
96,895
80,723
64,943
49,724
35,211
21,506
8,678
−3,242
−14,25
−24,344
−33,531
−41,835
−49,285
−55,921
−61,783
−66,915
−71,379
−75,265
−78,691
−81,78
−84,636
−87,331
−89,914
−92,418
−94,867
−97,279
−99,656
−101,99
−104,269
−106,483
−108,624
−110,682
−112,635
−114,439
−116,034
−117,363
−118,39
−119,092
−119,461
−119,492
−119,188
−118,558
−117,626
−116,422
−114,971
−113,299
−111,424
−109,368
−107,161
−104,838
−102,443
−100,008
−97,561
−95,125
−92,717
−90,354
−88,049
−85,809
−83,635
−81,527
−79,486
−77,517
−75,625
−73,813
−72,081
−70,427
−68,85
−67,349
−65,925
−64,577
−63,302
−62,101
−60,971
−59,913
−58,928
−58,014
−57,169
−56,389
−55,672
−55,014
−54,41
−53,857
−53,349
−52,882
−52,453
−52,055
−51,687
−51,344
−51,02
−50,713
−50,418
−50,132
−49,851
−49,572
−49,29
−49,004
−48,71
−48,405
−48,087
−47,754
−47,403
−47,033
−46,64
−46,225
−45,785
−45,32
−44,828
−44,309
−43,763
−43,189
−42,588
−41,96
−41,305
−40,624
−39,918
−39,187
−38,434
−37,66
−36,865
−36,052
−35,223
−34,379
−33,523
−32,657
−31,784
−30,905
−30,024
−29,142
−28,262
−27,387
−26,519
−25,66
−24,813
−23,98
−23,164
−22,366
−21,59
−20,836
−20,107
−19,405
−18,731
−18,087
−17,475
−16,896
−16,35
−15,84
−15,365
−14,927
−14,526
−14,161
−13,833
−13,542
−13,287
−13,067
−12,881
−12,73
−12,612
−12,525
−12,47
−12,444
−12,447
−12,478
−12,534
−12,615
−12,719
−12,845
−12,992
−13,159
−13,345
−13,548
−13,767
−14,002
−14,25
−14,512
−14,786
−15,071
−15,366
−15,672
−15,988
−16,313
−16,65
−16,997
−17,356
−17,726
−18,11
−18,506
−18,916
−19,339
−19,775
−20,226
−20,689
−21,167
−21,658
−22,163
−22,681
−23,212
−23,755
−24,309
−24,872
−25,443
−26,02
−26,601
−27,185
−27,769
−28,351
−28,929
−29,501
−30,064
−30,614
−31,148
−31,66
−32,147
−32,602
−33,019
−33,393
−33,718
−33,989
−34,201
−34,351
−34,434
−34,448
−34,391
−34,26
−34,052
−33,764
−33,392
−32,933
−32,382
−31,737
−30,998
−30,165
−29,239
−28,224
−27,126
−25,95
−24,702
−23,387
−22,006
−20,566
−19,074
−17,543
−15,989
−14,433
−12,902
−11,425
−10,032
−8,749
−7,596
−6,587
−5,725
−5,013
−4,449
−4,036
−3,784
−3,701
−3,792
−4,058
−4,496
−5,096
−5,833
−6,675
−7,582
−8,527
−9,493
−10,477
−11,488
−12,538
−13,651
−14,842
−16,114
−17,468
−18,895
−20,376
−21,896
−23,45
−25,048
−26,733
−28,545
−30,491
−32,573
−34,769
−37,072
−39,515
−42,089
−44,754
−47,527
−50,461
−53,709
−57,542
−62,114
−67,418
−73,43
−80,112
−87,377
−95,131
−102,976
−110,16
−116,148
−120,679
−123,64
−125,049
−124,849
−122,962
−119,925
−116,887
−114,751
−114,287
−116,006
−120,069
−127,08
−136,659
−146,507
−154,245
−157,533
−156,334
−153,631
−149,355
−140,081
−118,515
−74,441
−4,237
89,35
198,926
314,227
429,06
538,512
636,362
713,637
758,428
763,306
728,408
662,541
579,347
488,209
391,985
288,414
175,226
56,916
−55,128
−148,049
−213,603
−252,184
−271,667
−280,908
−285,377
−285,824
−279,689
−265,927
−245,86
−222,131
−198,202
−175,773
−155,199
−137,147
−121,841
−109,356
−99,955
−93,297
−88,797
−86,378
−85,856
−86,541
−87,842
−89,085
−89,52
−89,031
−87,785
−85,774
−83,129
−80,156
−77,091
−74,362
−72,493
−71,581
−71,497
−72,065
−72,995
−74,069
−75,141
−75,972
−76,26
−75,831
−74,609
−72,606
−69,922
−66,626
−62,76
−58,386
−53,598
−48,508
−43,234
−37,893
−32,56
−27,279
−22,094
−17,038
−12,146
−7,453
−2,968
1,322
5,434
9,38
13,171
16,813
20,329
23,758
27,143
30,531
33,959
37,452
41,037
44,737
48,575
52,57
56,734
61,074
65,596
70,312
75,233
80,373
85,743
91,353
97,214
103,331
109,703
116,328
123,199
130,302
137,621
145,133
152,806
160,611
168,521
176,512
184,564
192,653
200,746
208,81
216,808
224,715
232,516
240,196
247,747
255,169
262,472
269,687
276,857
284,01
291,159
298,298
305,411
312,48
319,485
326,408
333,22
339,871
346,301
352,451
358,249
363,616
368,457
372,638
376,023
378,496
379,956
380,338
379,592
377,671
374,54
370,175
364,561
357,716
349,672
340,463
330,142
318,772
306,428
293,235
279,329
264,833
249,874
234,557
218,977
203,243
187,459
171,728
156,163
140,853
125,864
111,274
97,14
83,523
70,491
58,065
46,253
35,067
24,498
14,546
5,221
−3,501
−11,651
−19,269
−26,423
−33,158
−39,5
−45,488
−51,148
−56,518
−61,652
−66,578
−71,307
−75,855
−80,224
−84,422
−88,466
−92,347
−96,043
−99,526
−102,75
−105,689
−108,335
−110,675
−112,706
−114,42
−115,803
−116,856
−117,595
−118,032
−118,182
−118,061
−117,679
−117,058
−116,234
−115,241
−114,123
−112,911
−111,63
−110,302
−108,95
−107,591
−106,243
−104,92
−103,625
−102,365
−101,149
−99,984
−98,879
−97,84
−96,865
−95,954
−95,107
−94,322
−93,601
−92,941
−92,343
−91,804
−91,325
−90,905
−90,546
−90,246
−90,003
−89,812
−89,671
−89,574
−89,519
−89,499
−89,51
−89,547
−89,605
−89,681
−89,771
−89,87
−89,975
−90,081
−90,186
−90,285
−90,376
−90,456
−90,522
−90,571
−90,601
−90,612
−90,6
−90,565
−90,505
−90,42
−90,31
−90,174
−90,013
−89,826
−89,615
−89,38
−89,123
−88,846
−88,549
−88,235
−87,906
−87,563
−87,208
−86,843
−86,47
−86,091
−85,707
−85,319
−84,929
−84,54
−84,151
−83,764
−83,381
−83,002
−82,629
−82,263
−81,904
−81,554
−81,213
−80,882
−80,56
−80,249
−79,947
−79,654
−79,37
−79,094
−78,824
−78,56
−78,299
−78,042
−77,785
−77,527
−77,268
−77,006
−76,739
−76,465
−76,184
−75,894
−75,594
−75,284
−74,961
−74,625
−74,277
−73,914
−73,538
−73,147
−72,742
−72,322
−71,888
−71,439
−70,976
−70,5
−70,011
−69,51
−68,999
−68,478
−67,949
−67,415
−66,876
−66,335
−65,794
−65,254
−64,718
−64,187
−63,663
−63,148
−62,644
−62,154
−61,678
−61,218
−60,777
−60,356
−59,956
−59,578
−59,222
−58,889
−58,578
−58,289
−58,022
−57,776
−57,55
−57,342
−57,151
−56,976
−56,814
−56,663
−56,52
−56,382
−56,247
−56,11
−55,968
−55,818
−55,656
−55,478
−55,281
−55,061
−54,815
−54,539
−54,228
−53,877
−53,482
−53,038
−52,539
−51,98
−51,356
−50,664
−49,901
−49,064
−48,15
−47,16
−46,094
−44,952
−43,733
−42,436
−41,059
−39,604
−38,069
−36,455
−34,763
−32,993
−31,149
−29,238
−27,267
−25,243
−23,17
−21,05
−18,889
−16,698
−14,49
−12,281
−10,088
−7,929
−5,83
−3,824
−1,944
−0,219
1,331
2,699
3,878
4,86
5,637
6,197
6,546
6,702
6,682
6,499
6,17
5,712
5,165
4,586
4,022
3,514
3,085
2,739
2,489
2,349
2,322
2,412
2,599
2,842
3,113
3,393
3,65
3,859
3,982
3,96
3,763
3,378
2,775
1,935
0,85
−0,552
−2,353
−4,633
−7,555
−11,234
−15,667
−20,867
−26,819
−33,302
−40,1
−46,981
−53,472
−59,192
−63,979
−67,567
−69,834
−71,029
−71,241
−70,511
−69,249
−67,768
−66,35
−65,589
−65,769
−66,848
−69,092
−72,768
−77,975
−83,975
−88,559
−89,341
−84,055
−72,557
−57,872
−41,252
−21,967
3,669
45,368
110,576
201,939
318,581
450,011
581,846
700,072
789,199
839,548
848,518
819,222
760,735
683,073
592,899
492,258
382,256
266,103
151,037
47,836
−35,634
−97,396
−140,837
−171,531
−193,002
−205,359
−206,395
−195,509
−174,667
−147,308
−117,901
−89,576
−63,783
−41,816
−24,479
−12,074
−4,742
−1,912
−2,404
−5,18
−9,384
−13,972
−18,021
−20,732
−21,326
−19,613
−15,913
−10,604
−4,156
2,87
10,007
16,741
22,489
27,015
30,353
32,611
34,034
34,871
35,288
35,493
35,716
36,056
36,54
37,168
37,895
38,699
39,584
40,529
41,518
42,562
43,683
44,922
46,304
47,83
49,501
51,32
53,302
55,471
57,84
60,412
63,185
66,158
69,333
72,712
76,282
80,021
83,895
87,864
91,907
96,018
100,193
104,434
108,74
113,111
117,556
122,091
126,729
131,481
136,356
141,361
146,514
151,839
157,37
163,139
169,167
175,466
182,038
188,88
195,979
203,316
210,858
218,567
226,409
234,357
242,389
250,485
258,617
266,753
274,853
282,88
290,807
298,615
306,288
313,826
321,232
328,531
335,772
343,001
350,254
357,552
364,887
372,243
379,603
386,948
394,261
401,511
408,658
415,65
422,43
428,932
435,067
440,714
445,711
449,891
453,098
455,211
456,151
455,855
454,27
451,346
447,051
441,366
434,287
425,816
415,95
404,697
392,099
378,261
363,336
347,506
330,952
313,826
296,252
278,352
260,249
242,064
223,907
205,879
188,086
170,654
153,737
137,488
122,021
107,395
93,62
80,682
68,556
57,231
46,7
36,941
27,928
19,632
12,035
5,113
−1,177
−6,91
−12,205
−17,179
−21,923
−26,492
−30,917
−35,214
−39,395
−43,473
−47,447
−51,308
−55,046
−58,658
−62,152
−65,53
−68,782
−71,873
−74,745
−77,347
−79,646
−81,626
−83,281
−84,613
−85,626
−86,334
−86,765
−86,949
−86,915
−86,685
−86,274
−85,699
−84,987
−84,168
−83,283
−82,363
−81,433
−80,514
−79,621
−78,77
−77,972
−77,232
−76,546
−75,913
−75,333
−74,805
−74,333
−73,919
−73,561
−73,256
−73,001
−72,795
−72,635
−72,521
−72,448
−72,415
−72,42
−72,462
−72,541
−72,655
−72,802
−72,981
−73,188
−73,421
−73,678
−73,957
−74,253
−74,565
−74,892
−75,23
−75,58
−75,939
−76,306
−76,681
−77,063
−77,451
−77,846
−78,246
−78,653
−79,065
−79,483
−79,907
−80,336
−80,77
−81,208
−81,652
−82,099
−82,551
−83,008
−83,468
−83,931
−84,398
−84,867
−85,338
−85,811
−86,284
−86,757
−87,229
−87,699
−88,167
−88,631
−89,091
−89,547
−89,996
−90,438
−90,873
−91,3
−91,717
−92,125
−92,522
−92,909
−93,285
−93,65
−94,004
−94,346
−94,679
−95,001
−95,313
−95,616
−95,91
−96,196
−96,474
−96,747
−97,014
−97,277
−97,537
−97,796
−98,054
−98,312
−98,573
−98,837
−99,104
−99,377
−99,656
−99,942
−100,234
−100,535
−100,843
−101,161
−101,486
−101,82
−102,163
−102,514
−102,872
−103,237
−103,609
−103,986
−104,367
−104,752
−105,14
−105,53
−105,919
−106,308
−106,695
−107,079
−107,46
−107,834
−108,203
−108,565
−108,919
−109,265
−109,601
−109,928
−110,245
−110,552
−110,849
−111,137
−111,417
−111,688
−111,952
−112,209
−112,462
−112,71
−112,956
−113,201
−113,447
−113,695
−113,946
−114,204
−114,469
−114,744
−115,031
−115,331
−115,647
−115,98
−116,332
−116,704
−117,097
−117,512
−117,95
−118,411
−118,895
−119,402
−119,932
−120,483
−121,054
−121,645
−122,252
−122,875
−123,509
−124,152
−124,8
−125,449
−126,096
−126,736
−127,364
−127,976
−128,567
−129,132
−129,666
−130,163
−130,617
−131,021
−131,371
−131,658
−131,878
−132,021
−132,084
−132,061
−131,948
−131,739
−131,432
−131,022
−130,506
−129,882
−129,149
−128,303
−127,34
−126,26
−125,062
−123,748
−122,322
−120,786
−119,145
−117,406
−115,576
−113,668
−111,689
−109,647
−107,55
−105,406
−103,228
−101,041
−98,864
−96,716
−94,616
−92,584
−90,64
−88,812
−87,114
−85,551
−84,128
−82,847
−81,718
−80,756
−79,972
−79,376
−78,969
−78,74
−78,684
−78,8
−79,081
−79,514
−80,085
−80,764
−81,542
−82,431
−83,432
−84,539
−85,739
−87,007
−88,328
−89,704
−91,127
−92,586
−94,063
−95,524
−96,95
−98,343
−99,688
−100,955
−102,158
−103,347
−104,636
−106,227
−108,272
−110,837
−114,034
−118,001
−122,708
−127,992
−133,494
−138,648
−143,071
−146,629
−149,087
−150,121
−149,678
−147,908
−145,303
−142,727
−140,689
−139,293
−138,907
−140,135
−143,282
−148,63
−156,076
−164,832
−174,696
−185,221
−194,389
−199,976
−199,933
−193,32
−182,372
−169,053
−151,982
−126,815
−85,491
−21,179
66,612
174,246
294,238
417,281
536,582
643,517
726,915
777,26
786,402
753,272
685,661
593,548
486,258
369,927
247,641
123,853
7,478
−90,818
−163,936
−210,301
−235,621
−249,087
−256,251
−258,865
−255,497
−243,705
−224,246
−200,062
−174,543
−150,627
−129,709
−112,523
−99,646
−91,244
−87,099
−86,466
−88,392
−92,312
−97,638
−103,505
−108,964
−112,99
−115,015
−115,117
−113,549
−110,517
−106,312
−101,316
−96,075
−91,307
−87,424
−84,476
−82,356
−80,836
−79,689
−78,727
−77,706
−76,332
−74,46
−72,08
−69,266
−66,181
−62,953
−59,659
−56,369
−53,138
−49,986
−46,906
−43,897
−40,953
−38,088
−35,33
−32,697
−30,194
−27,814
−25,532
−23,306
−21,073
−18,776
−16,366
−13,816
−11,125
−8,306
−5,385
−2,381
0,693
3,832
7,044
10,338
13,729
17,232
20,861
24,621
28,505
32,509
36,629
40,873
45,257
49,804
54,542
59,502
64,711
70,198
75,979
82,061
88,441
95,109
102,045
109,231
116,644
124,25
132,021
139,927
147,941
156,042
164,205
172,397
180,579
188,707
196,742
204,663
212,453
220,097
227,593
234,947
242,18
249,343
256,471
263,582
270,675
277,724
284,703
291,596
298,386
305,052
311,57
317,892
323,969
329,757
335,19
340,176
344,594
348,281
351,083
352,892
353,623
353,223
351,649
348,846
344,773
339,409
332,736
324,745
315,44
304,806
292,872
279,72
265,468
250,29
234,365
217,83
200,817
183,451
165,848
148,139
130,453
112,897
95,597
78,696
62,336
46,671
31,822
17,848
4,782
−7,38
−18,662
−29,07
−38,614
−47,325
−55,226
−62,348
−68,734
−74,418
−79,462
−83,966
−88,027
−91,75
−95,219
−98,48
−101,567
−104,504
−107,295
−109,948
−112,461
−114,82
−117,016
−119,05
−120,909
−122,584
−124,049
−125,252
−126,149
−126,706
−126,894
−126,708
−126,147
−125,21
−123,914
−122,281
−120,337
−118,117
−115,647
−112,949
−110,048
−106,974
−103,761
−100,452
−97,084
−93,686
−90,284
−86,899
−83,549
−80,25
−77,013
−73,841
−70,737
−67,704
−64,748
−61,874
−59,088
−56,39
−53,78
−51,259
−48,826
−46,482
−44,228
−42,063
−39,987
−38
−36,102
−34,295
−32,579
−30,953
−29,414
−27,961
−26,59
−25,299
−24,086
−22,947
−21,878
−20,877
−19,942
−19,069
−18,258
−17,504
−16,807
−16,163
−15,572
−15,03
−14,537
−14,091
−13,689
−13,332
−13,017
−12,743
−12,51
−12,315
−12,157
−12,036
−11,949
−11,898
−11,879
−11,892
−11,936
−12,011
−12,113
−12,244
−12,401
−12,583
−12,789
−13,018
−13,269
−13,541
−13,832
−14,14
−14,466
−14,806
−15,159
−15,525
−15,901
−16,286
−16,678
−17,077
−17,481
−17,889
−18,299
−18,711
−19,122
−19,533
−19,941
−20,346
−20,746
−21,141
−21,53
−21,912
−22,287
−22,655
−23,015
−23,368
−23,713
−24,05
−24,38
−24,702
−25,017
−25,325
−25,627
−25,922
−26,212
−26,496
−26,775
−27,05
−27,321
−27,588
−27,852
−28,112
−28,369
−28,624
−28,876
−29,126
−29,374
−29,622
−29,869
−30,116
−30,363
−30,61
−30,858
−31,107
−31,357
−31,607
−31,858
−32,108
−32,359
−32,61
−32,859
−33,108
−33,356
−33,603
−33,847
−34,089
−34,328
−34,564
−34,797
−35,028
−35,256
−35,482
−35,707
−35,93
−36,153
−36,377
−36,602
−36,827
−37,055
−37,286
−37,52
−37,757
−38
−38,248
−38,502
−38,764
−39,034
−39,313
−39,604
−39,905
−40,219
−40,547
−40,889
−41,248
−41,624
−42,019
−42,434
−42,871
−43,33
−43,813
−44,32
−44,85
−45,404
−45,981
−46,58
−47,199
−47,837
−48,493
−49,164
−49,848
−50,545
−51,25
−51,963
−52,678
−53,395
−54,109
−54,817
−55,516
−56,2
−56,868
−57,514
−58,135
−58,728
−59,286
−59,806
−60,282
−60,709
−61,081
−61,391
−61,633
−61,8
−61,887
−61,889
−61,802
−61,622
−61,347
−60,977
−60,511
−59,948
−59,286
−58,523
−57,657
−56,688
−55,615
−54,435
−53,15
−51,758
−50,265
−48,676
−46,998
−45,236
−43,395
−41,475
−39,483
−37,429
−35,33
−33,201
−31,06
−28,931
−26,842
−24,831
−22,936
−21,182
−19,585
−18,152
−16,891
−15,81
−14,92
−14,23
−13,737
−13,427
−13,29
−13,316
−13,491
−13,791
−14,178
−14,594
−14,993
−15,35
−15,663
−15,945
−16,205
−16,448
−16,677
−16,899
−17,147
−17,452
−17,841
−18,338
−18,962
−19,734
−20,687
−21,868
−23,297
−24,976
−26,867
−28,9
−31,071
−33,425
−36,061
−39,113
−42,65
−46,684
−51,236
−56,345
−61,901
−67,661
−73,273
−78,291
−82,476
−85,786
−88,267
−89,965
−91,038
−91,828
−92,733
−94,186
−96,33
−99,009
−101,94
−105,036
−108,341
−111,652
−114,958
−118,33
−121,842
−126,111
−131,101
−135,143
−136,486
−133,554
−125,749
−115,245
−103,168
−87,283
−62,977
−22,474
40,802
127,543
234,57
355,583
481,221
602,194
707,84
784,833
823,317
820,107
779,095
711,574
629,315
537,22
435,583
323,84
204,086
86,749
−14,807
−92,188
−143,393
−174,654
−194,632
−207,957
−215,121
−213,382
−201,289
−180,601
−154,896
−128,526
−103,959
−82,107
−63,857
−49,714
−40,008
−34,745
−33,089
−33,942
−36,687
−40,681
−45,019
−48,795
−51,044
−51,253
−49,609
−46,51
−42,294
−37,379
−32,245
−27,43
−23,592
−21,046
−19,715
−19,395
−19,794
−20,616
−21,621
−22,522
−22,992
−22,852
−22,047
−20,574
−18,499
−15,851
−12,637
−8,913
−4,757
−0,258
4,486
9,397
14,412
19,451
24,444
29,334
34,083
38,676
43,115
47,395
51,515
55,468
59,251
62,874
66,349
69,699
72,956
76,153
79,32
82,494
85,704
88,978
92,338
95,799
99,369
103,061
106,887
110,862
115,001
119,317
123,826
128,539
133,464
138,612
143,992
149,612
155,487
161,622
168,019
174,676
181,588
188,743
196,125
203,712
211,469
219,363
227,364
235,445
243,587
251,766
259,95
268,107
276,193
284,179
292,048
299,785
307,376
314,819
322,12
329,302
336,415
343,488
350,537
357,559
364,527
371,416
378,205
384,869
391,388
397,723
403,814
409,603
415,037
420,039
424,522
428,368
431,415
433,535
434,63
434,622
433,473
431,143
427,597
422,816
416,784
409,503
400,993
391,276
380,369
368,321
355,192
341,09
326,176
310,587
294,443
277,857
260,925
243,745
226,42
209,05
191,728
174,558
157,643
141,091
125,009
109,491
94,618
80,441
66,967
54,207
42,173
30,87
20,303
10,468
1,351
−7,073
−14,828
−21,963
−28,547
−34,647
−40,328
−45,655
−50,689
−55,477
−60,049
−64,43
−68,632
−72,668
−76,546
−80,271
−83,843
−87,253
−90,491
−93,532
−96,336
−98,875
−101,125
−103,068
−104,687
−105,974
−106,926
−107,55
−107,867
−107,895
−107,654
−107,166
−106,453
−105,542
−104,463
−103,252
−101,948
−100,582
−99,182
−97,774
−96,377
−95,009
−93,687
−92,42
−91,21
−90,061
−88,978
−87,966
−87,028
−86,167
−85,381
−84,67
−84,033
−83,466
−82,97
−82,542
−82,182
−81,887
−81,659
−81,495
−81,396
−81,362
−81,389
−81,476
−81,618
−81,811
−82,052
−82,336
−82,658
−83,015
−83,402
−83,816
−84,252
−84,708
−85,18
−85,665
−86,16
−86,662
−87,168
−87,676
−88,183
−88,687
−89,187
−89,681
−90,167
−90,644
−91,112
−91,568
−92,013
−92,445
−92,864
−93,269
−93,661
−94,037
−94,4
−94,749
−95,083
−95,405
−95,715
−96,013
−96,3
−96,578
−96,848
−97,11
−97,366
−97,617
−97,864
−98,109
−98,353
−98,596
−98,841
−99,089
−99,341
−99,599
−99,864
−100,136
−100,417
−100,707
−101,007
−101,318
−101,639
−101,971
−102,313
−102,667
−103,03
−103,404
−103,788
−104,181
−104,581
−104,989
−105,403
−105,822
−106,245
−106,67
−107,097
−107,523
−107,949
−108,372
−108,79
−109,203
−109,608
−110,005
−110,391
−110,765
−111,125
−111,471
−111,801
−112,114
−112,409
−112,685
−112,942
−113,18
−113,398
−113,597
−113,777
−113,939
−114,083
−114,211
−114,323
−114,422
−114,507
−114,582
−114,648
−114,706
−114,758
−114,806
−114,852
−114,897
−114,942
−114,989
−115,039
−115,095
−115,156
−115,225
−115,301
−115,388
−115,484
−115,59
−115,708
−115,837
−115,978
−116,13
−116,293
−116,467
−116,651
−116,846
−117,049
−117,26
−117,477
−117,7
−117,926
−118,154
−118,382
−118,609
−118,832
−119,049
−119,26
−119,462
−119,655
−119,836
−120,006
−120,162
−120,305
−120,433
−120,546
−120,645
−120,73
−120,8
−120,857
−120,902
−120,937
−120,962
−120,979
−120,989
−120,995
−120,996
−120,996
−120,995
−120,994
−120,994
−120,998
−121,006
−121,02
−121,041
−121,071
−121,111
−121,16
−121,221
−121,292
−121,374
−121,467
−121,569
−121,68
−121,798
−121,921
−122,047
−122,173
−122,296
−122,411
−122,515
−122,602
−122,665
−122,698
−122,694
−122,647
−122,551
−122,398
−122,183
−121,901
−121,547
−121,119
−120,611
−120,021
−119,342
−118,57
−117,699
−116,725
−115,644
−114,449
−113,137
−111,706
−110,155
−108,488
−106,708
−104,817
−102,816
−100,705
−98,49
−96,182
−93,793
−91,335
−88,827
−86,289
−83,753
−81,259
−78,838
−76,515
−74,308
−72,23
−70,29
−68,503
−66,878
−65,422
−64,138
−63,021
−62,071
−61,295
−60,683
−60,219
−59,871
−59,588
−59,338
−59,104
−58,88
−58,673
−58,493
−58,347
−58,255
−58,245
−58,339
−58,557
−58,912
−59,398
−60,021
−60,794
−61,747
−62,93
−64,386
−66,128
−68,153
−70,438
−72,946
−75,642
−78,501
−81,483
−84,533
−87,65
−90,887
−94,365
−98,279
−102,804
−108,02
−113,932
−120,543
−127,712
−135,152
−142,48
−149,077
−154,282
−157,624
−158,811
−157,666
−154,334
−149,253
−142,926
−136,27
−130,477
−126,486
−124,994
−126,576
−131,308
−138,793
−148,735
−159,641
−168,515
−172,878
−170,322
−159,688
−142,749
−120,214
−90,428
−50,843
3,376
76,185
166,496
271,867
388,617
508,679
623,475
721,186
785,234
805,433
780,136
714,974
625,43
524,9
417,281
304,745
186,949
66,846
−42,734
−131,565
−194,706
−232,887
−255,253
−268,84
−276,008
−276,413
−267,121
−248,033
−221,924
−192,394
−163,382
−137,043
−114,553
−96,945
−84,483
−77,18
−74,594
−75,558
−78,989
−83,994
−89,421
−94,22
−97,482
−98,373
−96,699
−92,801
−87,104
−80,144
−72,552
−64,882
−57,735
−51,728
−47,098
−43,787
−41,627
−40,331
−39,621
−39,301
−39,151
−38,927
−38,499
−37,822
−36,882
−35,699
−34,275
−32,571
−30,548
−28,202
−25,53
−22,545
−19,278
−15,755
−12,004
−8,056
−3,928
0,366
4,81
9,396
14,117
18,95
23,871
28,844
33,811
38,735
43,599
48,391
53,122
57,805
62,449
67,074
71,702
76,352
81,041
85,785
90,591
95,475
100,458
105,568
110,842
116,309
121,988
127,898
134,054
140,468
147,157
154,126
161,371
168,883
176,654
184,669
192,915
201,369
209,995
218,758
227,626
236,567
245,562
254,587
263,614
272,606
281,524
290,332
299,013
307,554
315,942
324,174
332,258
340,214
348,095
355,941
363,775
371,6
379,394
387,128
394,782
402,34
409,779
417,072
424,17
431,015
437,555
443,728
449,445
454,585
458,984
462,479
464,949
466,311
466,508
465,504
463,257
459,726
454,891
448,748
441,299
432,553
422,511
411,179
398,62
384,945
370,315
354,916
338,893
322,362
305,432
288,211
270,811
253,352
235,934
218,65
201,618
184,973
168,859
153,423
138,756
124,899
111,857
99,612
88,159
77,505
67,644
58,555
50,214
42,592
35,662
29,396
23,723
18,541
13,742
9,219
4,894
0,727
−3,313
−7,247
−11,088
−14,852
−18,539
−22,139
−25,648
−29,067
−32,392
−35,616
−38,708
−41,612
−44,28
−46,673
−48,763
−50,544
−52,009
−53,159
−54,003
−54,562
−54,86
−54,927
−54,784
−54,449
−53,942
−53,289
−52,521
−51,678
−50,794
−49,894
−49,001
−48,133
−47,303
−46,526
−45,807
−45,146
−44,543
−43,998
−43,511
−43,087
−42,728
−42,432
−42,198
−42,023
−41,906
−41,846
−41,841
−41,891
−41,993
−42,147
−42,352
−42,608
−42,916
−43,272
−43,674
−44,12
−44,605
−45,128
−45,684
−46,269
−46,879
−47,512
−48,163
−48,831
−49,513
−50,205
−50,905
−51,612
−52,322
−53,035
−53,749
−54,462
−55,173
−55,88
−56,583
−57,28
−57,97
−58,652
−59,325
−59,988
−60,642
−61,285
−61,917
−62,538
−63,148
−63,746
−64,334
−64,91
−65,476
−66,032
−66,578
−67,115
−67,644
−68,165
−68,679
−69,186
−69,687
−70,182
−70,671
−71,153
−71,63
−72,1
−72,565
−73,023
−73,474
−73,919
−74,357
−74,788
−75,211
−75,625
−76,032
−76,429
−76,816
−77,194
−77,56
−77,914
−78,256
−78,586
−78,902
−79,203
−79,49
−79,761
−80,016
−80,254
−80,475
−80,678
−80,863
−81,029
−81,176
−81,306
−81,417
−81,511
−81,587
−81,648
−81,693
−81,724
−81,741
−81,745
−81,738
−81,721
−81,695
−81,661
−81,621
−81,576
−81,528
−81,478
−81,427
−81,377
−81,329
−81,286
−81,247
−81,215
−81,191
−81,177
−81,173
−81,181
−81,202
−81,238
−81,288
−81,355
−81,437
−81,535
−81,649
−81,779
−81,924
−82,084
−82,257
−82,444
−82,642
−82,852
−83,072
−83,301
−83,539
−83,784
−84,036
−84,294
−84,556
−84,823
−85,094
−85,368
−85,644
−85,922
−86,202
−86,483
−86,763
−87,043
−87,322
−87,6
−87,874
−88,146
−88,415
−88,681
−88,943
−89,204
−89,462
−89,719
−89,977
−90,236
−90,498
−90,765
−91,037
−91,315
−91,601
−91,895
−92,197
−92,508
−92,827
−93,154
−93,49
−93,833
−94,182
−94,537
−94,895
−95,255
−95,615
−95,975
−96,33
−96,681
−97,024
−97,359
−97,682
−97,993
−98,287
−98,563
−98,817
−99,045
−99,244
−99,408
−99,531
−99,607
−99,632
−99,6
−99,506
−99,346
−99,114
−98,808
−98,427
−97,97
−97,432
−96,811
−96,105
−95,312
−94,428
−93,452
−92,382
−91,215
−89,952
−88,596
−87,151
−85,621
−84,01
−82,32
−80,552
−78,709
−76,803
−74,844
−72,841
−70,812
−68,776
−66,761
−64,805
−62,939
−61,182
−59,55
−58,048
−56,685
−55,469
−54,404
−53,49
−52,726
−52,104
−51,618
−51,273
−51,055
−50,942
−50,9
−50,869
−50,81
−50,707
−50,555
−50,358
−50,129
−49,873
−49,607
−49,366
−49,176
−49,055
−49,015
−49,037
−49,125
−49,298
−49,586
−50,052
−50,738
−51,634
−52,726
−53,991
−55,392
−56,94
−58,641
−60,447
−62,365
−64,456
−66,806
−69,62
−73,088
−77,208
−81,926
−87,176
−92,778
−98,59
−104,423
−109,764
−114,056
−117,06
−118,728
−119,089
−118,229
−116,102
−112,688
−109,031
−107,067
−108,087
−112,319
−117,894
−121,201
−119,857
−114,199
−107,883
−106,748
−115,586
−134,867
−158,884
−176,169
−173,104
−139,119
−69,76
30,47
151,557
283,453
416,457
544,22
660,665
755,973
818,981
839,075
810,772
736,485
628,125
502,84
377,057
265,407
172,873
96,823
32,495
−27,826
−86,35
−140,242
−186,103
−219,001
−237,492
−243,421
−239,035
−227,482
−211,111
−191,178
−169,036
−145,873
−122,804
−101,257
−82,535
−67,541
−56,685
−49,829
−46,476
−45,964
−47,521
−50,112
−52,515
−53,604
−52,722
−49,762
−44,979
−38,811
−31,766
−24,439
−17,544
−11,808
−7,65
−5,141
−4,156
−4,413
−5,596
−7,412
−9,53
−11,587
−13,345
−14,655
−15,394
−15,539
−15,086
−14,027
−12,4
−10,253
−7,613
−4,521
−1,035
2,797
6,908
11,234
15,738
20,372
25,084
29,814
34,479
39,023
43,418
47,646
51,699
55,571
59,258
62,775
66,154
69,427
72,621
75,76
78,86
81,944
85,043
88,191
91,426
94,779
98,272
101,928
105,768
109,808
114,062
118,54
123,245
128,184
133,37
138,81
144,508
150,464
156,671
163,117
169,787
176,659
183,7
190,879
198,171
205,552
213,004
220,503
228,02
235,526
242,994
250,404
257,745
265,009
272,186
279,282
286,313
293,303
300,288
307,289
314,302
321,321
328,327
335,303
342,234
349,088
355,816
362,363
368,664
374,649
380,244
385,353
389,854
393,63
396,565
398,569
399,584
399,562
398,459
396,241
392,883
388,385
382,778
376,091
368,35
359,594
349,878
339,29
327,95
315,968
303,43
290,413
276,978
263,189
249,125
234,861
220,461
205,979
191,464
176,979
162,617
148,464
134,584
121,017
107,778
94,9
82,451
70,494
59,083
48,262
38,05
28,462
19,526
11,258
3,652
−3,319
−9,717
−15,615
−21,058
−26,079
−30,708
−34,983
−38,969
−42,729
−46,304
−49,726
−53,016
−56,193
−59,287
−62,318
−65,28
−68,156
−70,911
−73,501
−75,902
−78,103
−80,09
−81,854
−83,375
−84,641
−85,655
−86,429
−86,974
−87,303
−87,424
−87,344
−87,091
−86,691
−86,178
−85,588
−84,947
−84,275
−83,594
−82,919
−82,265
−81,644
−81,059
−80,511
−80,001
−79,533
−79,108
−78,732
−78,403
−78,12
−77,879
−77,679
−77,517
−77,392
−77,303
−77,248
−77,227
−77,24
−77,288
−77,372
−77,493
−77,649
−77,839
−78,061
−78,312
−78,592
−78,896
−79,224
−79,572
−79,938
−80,322
−80,722
−81,135
−81,562
−82,001
−82,451
−82,911
−83,379
−83,856
−84,34
−84,831
−85,328
−85,83
−86,337
−86,848
−87,362
−87,878
−88,396
−88,913
−89,43
−89,945
−90,457
−90,967
−91,473
−91,976
−92,474
−92,969
−93,458
−93,943
−94,424
−94,9
−95,371
−95,837
−96,298
−96,755
−97,207
−97,655
−98,098
−98,537
−98,972
−99,403
−99,831
−100,254
−100,675
−101,093
−101,507
−101,92
−102,33
−102,739
−103,147
−103,554
−103,96
−104,366
−104,772
−105,178
−105,583
−105,988
−106,393
−106,796
−107,199
−107,6
−107,998
−108,394
−108,787
−109,176
−109,56
−109,937
−110,308
−110,671
−111,024
−111,367
−111,697
−112,015
−112,319
−112,607
−112,879
−113,133
−113,368
−113,582
−113,775
−113,946
−114,094
−114,217
−114,315
−114,389
−114,436
−114,458
−114,454
−114,424
−114,369
−114,29
−114,187
−114,061
−113,913
−113,744
−113,557
−113,351
−113,13
−112,895
−112,648
−112,392
−112,128
−111,86
−111,59
−111,32
−111,055
−110,795
−110,545
−110,307
−110,083
−109,877
−109,692
−109,53
−109,393
−109,285
−109,207
−109,162
−109,151
−109,176
−109,237
−109,335
−109,469
−109,642
−109,85
−110,094
−110,373
−110,685
−111,028
−111,401
−111,799
−112,221
−112,663
−113,121
−113,59
−114,066
−114,544
−115,017
−115,48
−115,928
−116,354
−116,751
−117,114
−117,435
−117,706
−117,922
−118,073
−118,154
−118,157
−118,074
−117,9
−117,629
−117,254
−116,772
−116,177
−115,467
−114,638
−113,687
−112,613
−111,414
−110,09
−108,64
−107,067
−105,372
−103,56
−101,634
−99,603
−97,475
−95,258
−92,964
−90,602
−88,185
−85,727
−83,243
−80,748
−78,257
−75,786
−73,353
−70,976
−68,673
−66,463
−64,362
−62,385
−60,546
−58,859
−57,338
−55,994
−54,833
−53,862
−53,085
−52,505
−52,132
−51,973
−52,029
−52,299
−52,783
−53,475
−54,369
−55,456
−56,709
−58,107
−59,619
−61,212
−62,867
−64,561
−66,273
−67,988
−69,67
−71,279
−72,786
−74,15
−75,335
−76,335
−77,128
−77,695
−78,102
−78,446
−78,873
−79,604
−80,791
−82,535
−84,954
−88,11
−91,966
−96,412
−101,117
−105,606
−109,488
−112,33
−113,795
−113,751
−111,969
−108,445
−103,712
−98,221
−93,193
−90,245
−89,61
−91,798
−96,138
−100,752
−106,19
−112,56
−120,509
−132,076
−146,362
−161,332
−172,677
−172,526
−152,548
−106,469
−34,018
59,859
165,814
275,333
386,659
497,41
604,067
698,582
764,414
790,947
776,192
726,737
658,208
580,827
496,601
403,127
296,647
180,988
67,928
−29,694
−103,165
−152,007
−183,267
−204,55
−220,186
−230,558
−232,624
−224,739
−208,201
−185,712
−160,857
−136,134
−112,354
−90,166
−70,46
−53,996
−41,333
−32,513
−26,985
−24,174
−23,806
−25,344
−27,82
−30,238
−31,612
−31,456
−29,922
−27,261
−23,661
−19,435
−15,006
−10,906
−7,779
−5,921
−5,235
−5,509
−6,42
−7,669
−9,045
−10,277
−11,049
−11,165
−10,528
−9,116
−7,009
−4,274
−0,951
2,896
7,197
11,872
16,821
21,942
27,137
32,321
37,44
42,451
47,316
52,006
56,491
60,759
64,823
68,695
72,387
75,907
79,261
82,468
85,57
88,608
91,627
94,666
97,749
100,903
104,153
107,522
111,026
114,678
118,483
122,447
126,586
130,911
135,436
140,169
145,119
150,294
155,705
161,359
167,256
173,392
179,761
186,351
193,149
200,136
207,282
214,559
221,94
229,403
236,931
244,5
252,078
259,632
267,127
274,537
281,851
289,055
296,139
303,103
309,958
316,732
323,466
330,183
336,888
343,57
350,206
356,776
363,262
369,641
375,876
381,916
387,699
393,169
398,259
402,892
406,966
410,355
412,935
414,606
415,298
414,965
413,571
411,09
407,501
402,798
397,003
390,148
382,26
373,371
363,52
352,759
341,171
328,868
315,947
302,497
288,591
274,292
259,666
244,779
229,689
214,456
199,125
183,748
168,4
153,164
138,123
123,372
108,978
94,989
81,478
68,504
56,122
44,39
33,345
23,017
13,439
4,628
−3,406
−10,664
−17,178
−22,997
−28,181
−32,819
−36,983
−40,737
−44,163
−47,325
−50,275
−53,069
−55,744
−58,327
−60,85
−63,33
−65,779
−68,206
−70,604
−72,952
−75,225
−77,374
−79,361
−81,161
−82,742
−84,089
−85,194
−86,051
−86,666
−87,056
−87,232
−87,212
−87,016
−86,658
−86,161
−85,55
−84,854
−84,108
−83,344
−82,582
−81,843
−81,142
−80,489
−79,894
−79,359
−78,882
−78,461
−78,094
−77,781
−77,523
−77,319
−77,165
−77,06
−76,998
−76,977
−76,994
−77,047
−77,135
−77,255
−77,406
−77,586
−77,797
−78,037
−78,305
−78,597
−78,912
−79,247
−79,599
−79,966
−80,344
−80,732
−81,128
−81,529
−81,936
−82,346
−82,76
−83,176
−83,594
−84,013
−84,433
−84,853
−85,274
−85,694
−86,114
−86,532
−86,949
−87,363
−87,775
−88,182
−88,585
−88,982
−89,373
−89,757
−90,133
−90,501
−90,861
−91,212
−91,554
−91,886
−92,207
−92,519
−92,819
−93,109
−93,386
−93,652
−93,905
−94,144
−94,37
−94,582
−94,78
−94,963
−95,131
−95,284
−95,422
−95,544
−95,652
−95,745
−95,823
−95,888
−95,94
−95,98
−96,009
−96,029
−96,039
−96,041
−96,036
−96,026
−96,012
−95,993
−95,973
−95,951
−95,929
−95,908
−95,889
−95,873
−95,862
−95,855
−95,854
−95,86
−95,874
−95,895
−95,926
−95,965
−96,014
−96,074
−96,143
−96,224
−96,315
−96,417
−96,53
−96,654
−96,788
−96,931
−97,083
−97,243
−97,411
−97,586
−97,766
−97,952
−98,142
−98,335
−98,531
−98,729
−98,929
−99,129
−99,33
−99,531
−99,732
−99,931
−100,13
−100,328
−100,524
−100,719
−100,913
−101,106
−101,297
−101,487
−101,676
−101,864
−102,05
−102,235
−102,418
−102,6
−102,781
−102,962
−103,142
−103,323
−103,506
−103,691
−103,879
−104,07
−104,266
−104,465
−104,669
−104,878
−105,09
−105,306
−105,524
−105,744
−105,964
−106,183
−106,4
−106,614
−106,821
−107,02
−107,209
−107,386
−107,548
−107,692
−107,816
−107,918
−107,994
−108,044
−108,063
−108,05
−108,001
−107,912
−107,78
−107,601
−107,369
−107,079
−106,727
−106,307
−105,817
−105,251
−104,608
−103,884
−103,079
−102,192
−101,223
−100,17
−99,032
−97,809
−96,499
−95,104
−93,623
−92,057
−90,407
−88,676
−86,868
−84,99
−83,047
−81,045
−78,985
−76,872
−74,719
−72,538
−70,345
−68,156
−65,991
−63,87
−61,826
−59,886
−58,078
−56,426
−54,943
−53,641
−52,532
−51,629
−50,944
−50,476
−50,212
−50,129
−50,211
−50,442
−50,804
−51,269
−51,789
−52,323
−52,837
−53,301
−53,696
−54
−54,189
−54,24
−54,143
−53,907
−53,559
−53,14
−52,674
−52,175
−51,658
−51,15
−50,695
−50,331
−50,088
−50,004
−50,125
−50,525
−51,287
−52,484
−54,153
−56,324
−59,012
−62,219
−65,974
−70,295
−75,18
−80,675
−86,87
−93,798
−101,418
−109,553
−117,809
−125,749
−132,983
−138,974
−143,104
−144,947
−144,262
−141,205
−136,599
−131,424
−126,562
−123,19
−121,914
−122,011
−122,59
−122,253
−120,406
−119,376
−120,606
−122,2
−117,968
−96,221
−46,902
32,066
135,401
251,838
370,654
487,047
598,441
699,74
781,452
830,696
836,753
798,565
723,725
622,972
508,009
386,481
263,154
145,523
40,915
−45,098
−109,452
−155,553
−189,648
−215,451
−234,655
−245,818
−245,937
−235,175
−215,786
−190,814
−164,032
−137,737
−113,077
−91,34
−73,46
−60,022
−51,204
−46,545
−45,221
−46,392
−49,175
−52,464
−55,069
−55,951
−54,573
−50,968
−45,508
−38,716
−31,157
−23,464
−16,356
−10,526
−6,356
−3,884
−2,957
−3,285
−4,552
−6,449
−8,641
−10,785
−12,651
−14,114
−15,069
−15,468
−15,285
−14,499
−13,129
−11,224
−8,813
−5,926
−2,614
1,077
5,081
9,328
13,774
18,387
23,124
27,938
32,767
37,536
42,203
46,743
51,138
55,382
59,47
63,406
67,212
70,921
74,563
78,164
81,742
85,314
88,901
92,53
96,231
100,04
103,985
108,086
112,366
116,841
121,525
126,435
131,577
136,961
142,593
148,477
154,612
160,998
167,623
174,474
181,53
188,757
196,126
203,607
211,174
218,811
226,498
234,21
241,92
249,591
257,194
264,712
272,134
279,449
286,657
293,769
300,808
307,827
314,873
321,972
329,134
336,345
343,578
350,817
358,047
365,246
372,386
379,417
386,277
392,911
399,251
405,199
410,634
415,386
419,284
422,203
424,041
424,73
424,223
422,469
419,419
415,047
409,34
402,292
393,921
384,232
373,241
361,018
347,673
333,364
318,28
302,567
286,352
269,759
252,893
235,869
218,814
201,829
185,018
168,503
152,396
136,818
121,895
107,697
94,262
81,595
69,664
58,458
47,975
38,194
29,096
20,66
12,845
5,618
−1,06
−7,271
−13,087
−18,584
−23,85
−28,938
−33,88
−38,704
−43,411
−48,002
−52,485
−56,853
−61,094
−65,206
−69,175
−72,984
−76,616
−80,026
−83,175
−86,036
−88,577
−90,783
−92,652
−94,178
−95,372
−96,255
−96,844
−97,162
−97,236
−97,085
−96,732
−96,207
−95,537
−94,76
−93,909
−93,008
−92,083
−91,151
−90,227
−89,326
−88,457
−87,619
−86,817
−86,054
−85,33
−84,652
−84,021
−83,437
−82,9
−82,409
−81,963
−81,56
−81,201
−80,886
−80,613
−80,383
−80,195
−80,052
−79,953
−79,897
−79,882
−79,907
−79,968
−80,065
−80,193
−80,352
−80,538
−80,749
−80,984
−81,241
−81,52
−81,819
−82,137
−82,472
−82,824
−83,191
−83,573
−83,967
−84,374
−84,79
−85,215
−85,648
−86,087
−86,53
−86,976
−87,422
−87,869
−88,313
−88,754
−89,188
−89,616
−90,035
−90,444
−90,841
−91,225
−91,594
−91,948
−92,285
−92,603
−92,901
−93,178
−93,432
−93,661
−93,864
−94,04
−94,187
−94,306
−94,395
−94,454
−94,484
−94,485
−94,458
−94,404
−94,324
−94,219
−94,091
−93,942
−93,774
−93,589
−93,39
−93,178
−92,956
−92,728
−92,494
−92,259
−92,024
−91,792
−91,565
−91,346
−91,137
−90,941
−90,761
−90,598
−90,455
−90,335
−90,239
−90,17
−90,129
−90,118
−90,137
−90,188
−90,27
−90,384
−90,529
−90,705
−90,911
−91,146
−91,408
−91,697
−92,009
−92,344
−92,699
−93,072
−93,46
−93,861
−94,273
−94,692
−95,118
−95,547
−95,976
−96,404
−96,828
−97,246
−97,655
−98,052
−98,435
−98,802
−99,15
−99,478
−99,783
−100,064
−100,318
−100,545
−100,744
−100,913
−101,053
−101,162
−101,242
−101,292
−101,312
−101,304
−101,27
−101,209
−101,124
−101,016
−100,888
−100,74
−100,575
−100,394
−100,201
−99,995
−99,781
−99,559
−99,331
−99,101
−98,87
−98,64
−98,414
−98,192
−97,979
−97,775
−97,584
−97,407
−97,246
−97,105
−96,984
−96,886
−96,811
−96,761
−96,736
−96,735
−96,76
−96,809
−96,881
−96,975
−97,089
−97,223
−97,374
−97,539
−97,717
−97,905
−98,099
−98,297
−98,495
−98,69
−98,878
−99,054
−99,217
−99,361
−99,483
−99,579
−99,644
−99,674
−99,662
−99,603
−99,491
−99,319
−99,08
−98,77
−98,385
−97,918
−97,368
−96,731
−96,008
−95,197
−94,299
−93,311
−92,231
−91,057
−89,79
−88,428
−86,972
−85,421
−83,776
−82,042
−80,228
−78,34
−76,388
−74,375
−72,304
−70,183
−68,023
−65,841
−63,653
−61,476
−59,33
−57,245
−55,257
−53,404
−51,711
−50,193
−48,856
−47,705
−46,749
−45,995
−45,451
−45,104
−44,938
−44,939
−45,097
−45,406
−45,845
−46,374
−46,933
−47,472
−47,961
−48,387
−48,752
−49,038
−49,237
−49,34
−49,352
−49,31
−49,245
−49,178
−49,125
−49,089
−49,082
−49,143
−49,319
−49,635
−50,118
−50,771
−51,581
−52,619
−53,979
−55,776
−58,182
−61,311
−65,214
−69,938
−75,495
−81,743
−88,455
−95,298
−101,768
−107,408
−111,85
−114,826
−116,223
−116,154
−114,847
−112,565
−109,792
−107,18
−105,395
−104,923
−106,186
−109,376
−114,537
−122,102
−131,162
−139,077
−143,758
−143,307
−138,798
−134,933
−132,358
−127,495
−111,666
−71,818
−2,515
93,679
208,292
328,819
447,723
560,355
661,542
743,387
794,302
806,497
778,576
718,322
639,652
551,645
459,647
363,632
260,28
153,727
50,202
−42,739
−116,726
−171,746
−209,633
−232,659
−244,916
−246,058
−236,243
−217,764
−192,249
−163,121
−133,664
−105,248
−79,332
−57,394
−40,248
−28,461
−22,016
−20,066
−21,598
−25,934
−32,173
−39
−45,172
−49,536
−51,48
−51,154
−48,941
−45,195
−40,412
−35,223
−30,307
−26,392
−23,83
−22,52
−22,232
−22,657
−23,473
−24,43
−25,245
−25,594
−25,308
−24,35
−22,726
−20,502
−17,735
−14,445
−10,69
−6,558
−2,128
2,498
7,234
12,013
16,764
21,434
25,991
30,408
34,677
38,799
42,772
46,591
50,262
53,782
57,157
60,406
63,552
66,635
69,696
72,774
75,907
79,124
82,45
85,906
89,508
93,261
97,177
101,267
105,542
110,019
114,713
119,636
124,8
130,211
135,876
141,801
147,989
154,438
161,147
168,113
175,336
182,82
190,56
198,544
206,758
215,178
223,782
232,543
241,425
250,381
259,369
268,343
277,269
286,125
294,883
303,515
311,991
320,276
328,348
336,201
343,821
351,189
358,291
365,11
371,648
377,932
383,975
389,781
395,332
400,586
405,505
410,065
414,226
417,946
421,169
423,814
425,824
427,172
427,822
427,746
426,892
425,169
422,513
418,884
414,261
408,657
402,079
394,515
385,98
376,514
366,175
355,052
343,204
330,645
317,405
303,525
289,07
274,156
258,883
243,329
227,57
211,681
195,75
179,896
164,223
148,795
133,668
118,876
104,479
90,585
77,283
64,64
52,702
41,478
30,975
21,216
12,209
3,932
−3,651
−10,612
−17,024
−22,927
−28,354
−33,335
−37,913
−42,162
−46,147
−49,91
−53,484
−56,888
−60,139
−63,265
−66,283
−69,182
−71,941
−74,525
−76,889
−79,016
−80,897
−82,522
−83,884
−84,968
−85,766
−86,283
−86,537
−86,542
−86,315
−85,867
−85,212
−84,382
−83,41
−82,332
−81,191
−80,017
−78,834
−77,666
−76,534
−75,455
−74,445
−73,509
−72,651
−71,875
−71,185
−70,586
−70,083
−69,676
−69,362
−69,14
−69,005
−68,955
−68,986
−69,095
−69,278
−69,532
−69,854
−70,241
−70,691
−71,201
−71,765
−72,379
−73,037
−73,733
−74,46
−75,212
−75,984
−76,769
−77,56
−78,355
−79,146
−79,932
−80,707
−81,468
−82,213
−82,938
−83,64
−84,319
−84,972
−85,598
−86,196
−86,765
−87,306
−87,818
−88,301
−88,758
−89,187
−89,591
−89,971
−90,327
−90,663
−90,98
−91,281
−91,566
−91,839
−92,102
−92,357
−92,607
−92,853
−93,097
−93,342
−93,588
−93,836
−94,088
−94,343
−94,602
−94,866
−95,134
−95,405
−95,68
−95,958
−96,238
−96,52
−96,801
−97,082
−97,361
−97,637
−97,908
−98,173
−98,43
−98,679
−98,917
−99,143
−99,355
−99,552
−99,733
−99,897
−100,042
−100,168
−100,273
−100,358
−100,423
−100,467
−100,491
−100,496
−100,482
−100,451
−100,404
−100,343
−100,269
−100,185
−100,092
−99,993
−99,888
−99,781
−99,673
−99,567
−99,464
−99,365
−99,273
−99,19
−99,117
−99,055
−99,006
−98,971
−98,951
−98,948
−98,961
−98,993
−99,042
−99,109
−99,193
−99,295
−99,414
−99,548
−99,697
−99,858
−100,03
−100,21
−100,398
−100,589
−100,782
−100,974
−101,163
−101,346
−101,522
−101,687
−101,84
−101,979
−102,103
−102,21
−102,299
−102,368
−102,417
−102,445
−102,451
−102,436
−102,399
−102,34
−102,26
−102,159
−102,039
−101,899
−101,742
−101,57
−101,384
−101,186
−100,979
−100,766
−100,55
−100,333
−100,119
−99,912
−99,715
−99,531
−99,362
−99,213
−99,084
−98,98
−98,902
−98,851
−98,829
−98,837
−98,877
−98,948
−99,052
−99,188
−99,356
−99,557
−99,79
−100,054
−100,348
−100,671
−101,022
−101,398
−101,798
−102,218
−102,657
−103,11
−103,574
−104,046
−104,52
−104,993
−105,46
−105,915
−106,355
−106,775
−107,17
−107,535
−107,867
−108,16
−108,412
−108,618
−108,775
−108,879
−108,928
−108,919
−108,849
−108,714
−108,51
−108,235
−107,884
−107,455
−106,945
−106,352
−105,672
−104,906
−104,054
−103,115
−102,089
−100,977
−99,778
−98,493
−97,124
−95,672
−94,139
−92,525
−90,832
−89,063
−87,224
−85,318
−83,35
−81,32
−79,229
−77,08
−74,885
−72,655
−70,402
−68,144
−65,896
−63,682
−61,535
−59,483
−57,551
−55,759
−54,12
−52,653
−51,385
−50,335
−49,523
−48,955
−48,619
−48,504
−48,594
−48,862
−49,275
−49,784
−50,322
−50,837
−51,294
−51,663
−51,923
−52,046
−51,982
−51,697
−51,174
−50,408
−49,424
−48,248
−46,907
−45,45
−43,939
−42,45
−41,081
−39,914
−39,008
−38,413
−38,161
−38,299
−38,901
−40,039
−41,799
−44,218
−47,273
−50,982
−55,383
−60,563
−66,688
−73,787
−81,721
−90,392
−99,749
−109,643
−119,882
−129,949
−138,888
−146,005
−150,952
−153,427
−153,281
−150,491
−145,086
−137,673
−129,739
−122,657
−117,399
−114,983
−115,582
−118,097
−121,327
−123,56
−123,834
−124,343
−126,923
−130,121
−127,934
−108,566
−61,309
17,074
122,102
242,488
367,494
491,196
608,714
714,435
797,645
844,423
846,886
805,712
731,824
640,996
543,411
441,997
333,865
216,314
94,168
−20,827
−115,603
−181,851
−219,854
−237,219
−242,346
−240,26
−232,178
−216,699
−193,746
−165,807
−136,455
−109,361
−86,874
−69,963
−58,941
−53,366
−52,319
−54,563
−58,647
−63,319
−67,48
−70,094
−70,282
−67,636
−62,286
−54,731
−45,703
−35,94
−26,126
−16,984
−9,236
−3,268
0,856
3,253
4,238
4,131
3,213
1,838
0,349
−1,054
−2,256
−3,207
−3,918
−4,341
−4,415
−4,107
−3,371
−2,182
−0,53
1,595
4,177
7,17
10,521
14,169
18,062
22,171
26,466
30,921
35,513
40,202
44,947
49,707
54,42
59,045
63,559
67,946
72,21
76,369
80,438
84,441
88,407
92,357
96,31
100,282
104,285
108,339
112,469
116,701
121,073
125,615
130,35
135,301
140,48
145,898
151,563
157,479
163,648
170,074
176,761
183,705
190,902
198,343
206,011
213,886
221,939
230,132
238,431
246,802
255,216
263,654
272,087
280,486
288,815
297,03
305,098
313,003
320,729
328,262
335,601
342,749
349,732
356,599
363,382
370,093
376,727
383,25
389,642
395,893
401,988
407,914
413,642
419,118
424,297
429,136
433,567
437,501
440,812
443,324
444,906
445,466
444,939
443,3
440,515
436,534
431,328
424,885
417,201
408,294
398,161
386,782
374,189
360,461
345,727
330,184
313,989
297,261
280,109
262,618
244,888
227,048
209,199
191,423
173,824
156,509
139,623
123,35
107,818
93,099
79,223
66,161
53,906
42,477
31,878
22,11
13,162
4,999
−2,397
−9,028
−14,934
−20,182
−24,876
−29,169
−33,171
−36,95
−40,555
−44,001
−47,314
−50,527
−53,658
−56,706
−59,672
−62,553
−65,356
−68,102
−70,788
−73,386
−75,851
−78,113
−80,121
−81,856
−83,3
−84,453
−85,316
−85,889
−86,19
−86,251
−86,099
−85,757
−85,243
−84,566
−83,747
−82,815
−81,805
−80,755
−79,699
−78,657
−77,652
−76,698
−75,81
−74,996
−74,258
−73,592
−72,995
−72,468
−72,013
−71,631
−71,325
−71,092
−70,93
−70,836
−70,809
−70,846
−70,944
−71,101
−71,314
−71,581
−71,901
−72,272
−72,692
−73,159
−73,669
−74,217
−74,799
−75,411
−76,047
−76,703
−77,373
−78,054
−78,741
−79,43
−80,118
−80,801
−81,477
−82,142
−82,795
−83,434
−84,056
−84,659
−85,244
−85,807
−86,35
−86,87
−87,367
−87,841
−88,291
−88,718
−89,122
−89,503
−89,862
−90,2
−90,517
−90,816
−91,096
−91,36
−91,61
−91,846
−92,071
−92,287
−92,496
−92,699
−92,899
−93,096
−93,293
−93,491
−93,691
−93,895
−94,103
−94,318
−94,538
−94,765
−94,999
−95,24
−95,487
−95,74
−96
−96,264
−96,532
−96,804
−97,078
−97,354
−97,63
−97,905
−98,178
−98,447
−98,711
−98,969
−99,219
−99,46
−99,691
−99,911
−100,119
−100,313
−100,493
−100,658
−100,807
−100,94
−101,055
−101,152
−101,23
−101,291
−101,333
−101,357
−101,365
−101,356
−101,331
−101,293
−101,242
−101,18
−101,108
−101,028
−100,942
−100,851
−100,758
−100,665
−100,573
−100,484
−100,401
−100,325
−100,257
−100,199
−100,153
−100,119
−100,098
−100,09
−100,098
−100,121
−100,159
−100,214
−100,284
−100,372
−100,475
−100,595
−100,73
−100,88
−101,043
−101,219
−101,407
−101,604
−101,809
−102,021
−102,237
−102,456
−102,676
−102,895
−103,11
−103,32
−103,522
−103,716
−103,898
−104,068
−104,224
−104,366
−104,492
−104,602
−104,696
−104,773
−104,834
−104,878
−104,906
−104,918
−104,914
−104,896
−104,863
−104,817
−104,758
−104,689
−104,609
−104,521
−104,426
−104,325
−104,222
−104,116
−104,012
−103,91
−103,814
−103,725
−103,645
−103,576
−103,519
−103,476
−103,448
−103,436
−103,438
−103,456
−103,488
−103,535
−103,595
−103,667
−103,749
−103,838
−103,934
−104,034
−104,134
−104,232
−104,326
−104,411
−104,484
−104,543
−104,583
−104,6
−104,589
−104,547
−104,468
−104,347
−104,176
−103,949
−103,661
−103,305
−102,875
−102,368
−101,777
−101,1
−100,335
−99,481
−98,536
−97,497
−96,36
−95,125
−93,789
−92,35
−90,807
−89,159
−87,405
−85,548
−83,595
−81,551
−79,421
−77,21
−74,918
−72,552
−70,124
−67,648
−65,14
−62,618
−60,104
−57,625
−55,221
−52,924
−50,764
−48,755
−46,906
−45,224
−43,72
−42,403
−41,283
−40,356
−39,611
−39,034
−38,617
−38,347
−38,201
−38,145
−38,124
−38,09
−38,02
−37,911
−37,774
−37,614
−37,435
−37,235
−37,017
−36,813
−36,65
−36,555
−36,553
−36,658
−36,889
−37,281
−37,877
−38,706
−39,775
−41,04
−42,438
−43,97
−45,69
−47,719
−50,224
−53,287
−56,948
−61,306
−66,431
−72,249
−78,537
−84,846
−90,629
−95,559
−99,468
−102,149
−103,483
−103,531
−102,584
−101,263
−100,224
−99,773
−100,019
−101,193
−103,54
−107,139
−111,945
−117,628
−123,877
−130,887
−138,326
−144,581
−147,848
−146,272
−139,622
−130,251
−119,72
−107,426
−88,914
−56,216
−2,198
77,206
180,641
302,48
434,881
568,007
690,881
790,86
855,204
874,35
846,54
777,619
678,315
562,173
437,95
311,792
190,123
77,543
−18,518
−92,654
−145,194
−179,378
−202,111
−218,741
−230,624
−236,696
−234,315
−223,217
−205,418
−183,717
−161,356
−139,772
−119,41
−101,153
−85,595
−73,246
−64,397
−58,558
−55,045
−53,541
−53,552
−54,244
−54,716
−53,971
−51,465
−47,335
−41,902
−35,466
−28,428
−21,254
−14,522
−8,944
−4,901
−2,383
−1,244
−1,219
−2,039
−3,484
−5,254
−6,99
−8,456
−9,512
−10,079
−10,154
−9,701
−8,682
−7,106
−5,005
−2,422
0,592
3,997
7,755
11,811
16,113
20,611
25,259
30,023
34,859
39,719
44,554
49,307
53,94
58,432
62,765
66,942
70,973
74,87
78,656
82,361
86,012
89,632
93,248
96,875
100,539
104,267
108,09
112,044
116,16
120,461
124,969
129,699
134,665
139,885
145,371
151,127
157,156
163,457
170,027
176,86
183,946
191,264
198,784
206,478
214,317
222,279
230,347
238,501
246,715
254,961
263,203
271,41
279,565
287,651
295,655
303,57
311,399
319,157
326,883
334,608
342,345
350,093
357,832
365,533
373,173
380,725
388,159
395,446
402,533
409,362
415,876
422,006
427,665
432,75
437,121
440,638
443,197
444,713
445,132
444,416
442,528
439,445
435,156
429,652
422,94
415,036
405,954
395,728
384,41
372,077
358,847
344,862
330,235
315,073
299,469
283,505
267,273
250,858
234,342
217,812
201,366
185,107
169,143
153,57
138,469
123,915
109,946
96,577
83,826
71,71
60,241
49,431
39,282
29,788
20,938
12,709
5,055
−2,09
−8,791
−15,11
−21,103
−26,824
−32,316
−37,605
−42,713
−47,65
−52,425
−57,047
−61,518
−65,838
−70,002
−73,996
−77,792
−81,35
−84,637
−87,628
−90,302
−92,642
−94,637
−96,283
−97,586
−98,564
−99,235
−99,617
−99,727
−99,586
−99,218
−98,651
−97,919
−97,058
−96,1
−95,071
−93,997
−92,897
−91,79
−90,694
−89,618
−88,566
−87,546
−86,563
−85,624
−84,736
−83,904
−83,13
−82,417
−81,765
−81,175
−80,65
−80,191
−79,798
−79,473
−79,217
−79,029
−78,914
−78,87
−78,896
−78,99
−79,151
−79,375
−79,659
−79,999
−80,392
−80,833
−81,319
−81,846
−82,409
−83,007
−83,633
−84,284
−84,957
−85,647
−86,35
−87,062
−87,78
−88,499
−89,215
−89,924
−90,624
−91,31
−91,98
−92,631
−93,259
−93,863
−94,44
−94,988
−95,507
−95,994
−96,449
−96,87
−97,259
−97,614
−97,936
−98,224
−98,481
−98,706
−98,9
−99,066
−99,203
−99,313
−99,398
−99,459
−99,498
−99,517
−99,518
−99,503
−99,474
−99,434
−99,385
−99,33
−99,27
−99,207
−99,145
−99,084
−99,027
−98,975
−98,929
−98,89
−98,861
−98,842
−98,834
−98,837
−98,852
−98,879
−98,918
−98,97
−99,032
−99,107
−99,191
−99,286
−99,39
−99,502
−99,621
−99,747
−99,877
−100,012
−100,148
−100,286
−100,423
−100,559
−100,692
−100,82
−100,944
−101,061
−101,171
−101,273
−101,367
−101,451
−101,525
−101,589
−101,643
−101,685
−101,717
−101,737
−101,747
−101,745
−101,734
−101,712
−101,681
−101,642
−101,594
−101,54
−101,478
−101,411
−101,338
−101,261
−101,18
−101,096
−101,009
−100,92
−100,829
−100,737
−100,642
−100,546
−100,448
−100,348
−100,245
−100,138
−100,027
−99,912
−99,792
−99,665
−99,533
−99,393
−99,246
−99,091
−98,927
−98,755
−98,573
−98,381
−98,178
−97,965
−97,742
−97,507
−97,261
−97,005
−96,739
−96,462
−96,176
−95,881
−95,579
−95,27
−94,956
−94,639
−94,321
−94,004
−93,689
−93,38
−93,079
−92,788
−92,511
−92,249
−92,005
−91,781
−91,58
−91,404
−91,253
−91,129
−91,034
−90,968
−90,932
−90,926
−90,95
−91,004
−91,087
−91,197
−91,333
−91,494
−91,677
−91,88
−92,099
−92,33
−92,57
−92,814
−93,057
−93,294
−93,519
−93,726
−93,91
−94,062
−94,177
−94,247
−94,265
−94,224
−94,117
−93,936
−93,674
−93,326
−92,886
−92,347
−91,706
−90,957
−90,097
−89,122
−88,029
−86,816
−85,482
−84,027
−82,45
−80,754
−78,942
−77,017
−74,984
−72,852
−70,627
−68,318
−65,936
−63,492
−61
−58,473
−55,927
−53,379
−50,845
−48,342
−45,887
−43,497
−41,19
−38,979
−36,882
−34,914
−33,088
−31,423
−29,93
−28,619
−27,498
−26,571
−25,841
−25,316
−24,997
−24,887
−24,989
−25,307
−25,841
−26,593
−27,552
−28,703
−30,022
−31,479
−33,043
−34,694
−36,409
−38,179
−39,988
−41,805
−43,598
−45,333
−46,968
−48,468
−49,788
−50,871
−51,737
−52,473
−53,225
−54,204
−55,564
−57,4
−59,861
−63,068
−66,98
−71,413
−75,996
−80,278
−84,029
−87,132
−89,338
−90,426
−90,36
−89,346
−87,953
−86,748
−85,921
−85,552
−86
−87,787
−91,282
−96,635
−103,579
−111,749
−121,271
−131,502
−140,125
−144,672
−142,865
−134,397
−122,436
−108,652
−90,883
−63,558
−17,489
53,745
149,134
263,086
387,374
512,982
632,851
738,55
816,717
854,626
845,202
789,856
702,244
600,197
495,093
390,932
284,365
171,102
55,039
−52,799
−140,19
−199,304
−230,86
−243,207
−245,118
−241,404
−233,227
−218,924
−197,807
−171,82
−143,918
−116,955
−92,839
−72,702
−57,138
−46,295
−39,988
−37,475
−37,782
−40,269
−44,18
−48,418
−51,905
−53,61
−53,008
−50,285
−45,868
−40,135
−33,562
−26,746
−20,359
−15,157
−11,556
−9,54
−8,924
−9,427
−10,744
−12,591
−14,64
−16,495
−17,883
−18,678
−18,81
−18,303
−17,192
−15,481
−13,205
−10,418
−7,166
−3,499
0,523
4,853
9,439
14,211
19,109
24,068
29,006
33,866
38,602
43,182
47,597
51,843
55,912
59,808
63,548
67,149
70,641
74,05
77,393
80,697
83,989
87,303
90,683
94,16
97,76
101,506
105,413
109,498
113,781
118,272
122,975
127,899
133,05
138,44
144,089
150,006
156,193
162,645
169,354
176,306
183,488
190,876
198,437
206,14
213,955
221,859
229,84
237,876
245,941
254
262,012
269,948
277,794
285,536
293,162
300,675
308,081
315,411
322,719
330,041
337,395
344,782
352,174
359,55
366,894
374,187
381,411
388,53
395,482
402,206
408,647
414,723
420,336
425,351
429,593
432,916
435,212
436,395
436,415
435,232
432,792
429,058
424,007
417,631
409,948
400,98
390,741
379,279
366,672
353,049
338,591
323,457
307,778
291,678
275,256
258,614
241,871
225,137
208,514
192,112
176,028
160,356
145,206
130,665
116,789
103,598
91,072
79,192
67,953
57,348
47,37
38,012
29,243
21,032
13,343
6,121
−0,689
−7,137
−13,287
−19,196
−24,903
−30,433
−35,789
−40,968
−45,971
−50,799
−55,452
−59,927
−64,212
−68,291
−72,145
−75,74
−79,047
−82,048
−84,719
−87,043
−89,013
−90,625
−91,89
−92,827
−93,456
−93,795
−93,866
−93,69
−93,294
−92,707
−91,961
−91,092
−90,134
−89,113
−88,057
−86,986
−85,922
−84,881
−83,875
−82,909
−81,99
−81,124
−80,318
−79,577
−78,906
−78,305
−77,776
−77,319
−76,933
−76,619
−76,376
−76,204
−76,104
−76,074
−76,115
−76,228
−76,412
−76,666
−76,986
−77,37
−77,813
−78,312
−78,863
−79,46
−80,1
−80,777
−81,488
−82,228
−82,994
−83,781
−84,587
−85,406
−86,236
−87,073
−87,916
−88,761
−89,605
−90,448
−91,286
−92,118
−92,942
−93,758
−94,562
−95,354
−96,132
−96,894
−97,641
−98,369
−99,079
−99,77
−100,442
−101,092
−101,722
−102,331
−102,919
−103,486
−104,032
−104,557
−105,061
−105,544
−106,007
−106,449
−106,871
−107,272
−107,652
−108,013
−108,353
−108,672
−108,972
−109,252
−109,512
−109,753
−109,974
−110,177
−110,361
−110,528
−110,679
−110,814
−110,934
−111,041
−111,136
−111,22
−111,294
−111,36
−111,419
−111,472
−111,52
−111,565
−111,609
−111,651
−111,694
−111,738
−111,785
−111,835
−111,89
−111,95
−112,017
−112,091
−112,173
−112,263
−112,363
−112,472
−112,591
−112,72
−112,859
−113,008
−113,166
−113,333
−113,507
−113,688
−113,874
−114,064
−114,257
−114,449
−114,64
−114,828
−115,01
−115,185
−115,351
−115,505
−115,647
−115,774
−115,884
−115,977
−116,051
−116,105
−116,138
−116,148
−116,136
−116,099
−116,039
−115,953
−115,843
−115,709
−115,549
−115,366
−115,16
−114,932
−114,683
−114,416
−114,132
−113,833
−113,522
−113,201
−112,874
−112,544
−112,214
−111,888
−111,569
−111,26
−110,966
−110,69
−110,433
−110,201
−109,994
−109,816
−109,668
−109,552
−109,469
−109,421
−109,409
−109,432
−109,492
−109,587
−109,716
−109,879
−110,074
−110,298
−110,548
−110,821
−111,113
−111,419
−111,736
−112,057
−112,376
−112,689
−112,988
−113,265
−113,515
−113,728
−113,896
−114,012
−114,067
−114,054
−113,964
−113,791
−113,527
−113,166
−112,701
−112,127
−111,439
−110,633
−109,704
−108,649
−107,466
−106,153
−104,71
−103,139
−101,44
−99,619
−97,681
−95,634
−93,485
−91,245
−88,921
−86,527
−84,075
−81,579
−79,052
−76,512
−73,974
−71,459
−68,986
−66,575
−64,245
−62,014
−59,9
−57,917
−56,083
−54,409
−52,908
−51,592
−50,47
−49,553
−48,851
−48,374
−48,122
−48,098
−48,298
−48,717
−49,348
−50,176
−51,182
−52,345
−53,645
−55,063
−56,576
−58,16
−59,79
−61,442
−63,098
−64,738
−66,344
−67,895
−69,362
−70,726
−71,994
−73,161
−74,235
−75,271
−76,347
−77,598
−79,247
−81,478
−84,43
−88,266
−93,058
−98,724
−105,087
−111,739
−118,07
−123,537
−127,581
−129,636
−129,411
−126,882
−122,24
−116,142
−109,486
−103,187
−98,399
−96,188
−97,287
−102,164
−110,822
−122,8
−136,769
−150,188
−160,224
−163,984
−160,195
−150,618
−136,272
−116,597
−89,035
−46,05
18,755
107,225
219,28
347,671
479,773
603,359
702,401
763,123
781,524
758,776
704,663
634,422
556,554
474,624
386,677
286,604
174,533
57,436
−52,562
−142,123
−204,093
−239,209
−254,802
−259,038
−256,644
−248,694
−233,528
−210,784
−182,422
−151,608
−121,92
−95,636
−74,153
−58,336
−47,99
−42,513
−41,01
−42,199
−45,143
−49,019
−52,527
−54,481
−54,288
−51,825
−47,506
−42,029
−35,909
−29,616
−23,854
−19,33
−16,443
−15,282
−15,621
−17,035
−19,13
−21,571
−24,001
−26,056
−27,503
−28,209
−28,113
−27,247
−25,652
−23,358
−20,423
−16,917
−12,891
−8,418
−3,588
1,502
6,73
11,982
17,19
22,298
27,265
32,061
36,649
41,014
45,162
49,107
52,859
56,425
59,81
63,035
66,138
69,165
72,167
75,185
78,249
81,387
84,625
87,984
91,486
95,141
98,957
102,941
107,106
111,468
116,044
120,843
125,872
131,14
136,655
142,432
148,478
154,792
161,373
168,212
175,298
182,619
190,153
197,869
205,734
213,718
221,795
229,947
238,15
246,374
254,584
262,737
270,801
278,763
286,608
294,324
301,914
309,384
316,761
324,101
331,441
338,799
346,173
353,537
360,863
368,136
375,335
382,441
389,417
396,2
402,732
408,959
414,809
420,188
424,967
428,967
432,042
434,086
435,02
434,81
433,421
430,81
426,947
421,821
415,439
407,824
398,995
388,947
377,705
365,334
351,956
337,756
322,897
307,502
291,68
275,513
259,093
242,532
225,93
209,361
192,906
176,653
160,716
145,25
130,39
116,221
102,778
90,044
78,011
66,692
56,101
46,248
37,128
28,717
20,999
13,975
7,628
1,913
−3,251
−7,987
−12,409
−16,593
−20,587
−24,412
−28,089
−31,651
−35,119
−38,502
−41,797
−45
−48,116
−51,162
−54,143
−57,041
−59,82
−62,417
−64,78
−66,881
−68,703
−70,24
−71,49
−72,452
−73,137
−73,57
−73,777
−73,783
−73,605
−73,252
−72,742
−72,099
−71,355
−70,548
−69,708
−68,858
−68,017
−67,203
−66,427
−65,702
−65,031
−64,409
−63,836
−63,31
−62,834
−62,41
−62,04
−61,723
−61,457
−61,241
−61,073
−60,953
−60,88
−60,852
−60,869
−60,929
−61,033
−61,181
−61,373
−61,609
−61,885
−62,2
−62,551
−62,937
−63,353
−63,798
−64,268
−64,759
−65,27
−65,797
−66,338
−66,89
−67,451
−68,018
−68,591
−69,166
−69,741
−70,316
−70,888
−71,455
−72,015
−72,567
−73,108
−73,637
−74,151
−74,651
−75,133
−75,597
−76,042
−76,466
−76,87
−77,251
−77,609
−77,943
−78,254
−78,54
−78,802
−79,04
−79,254
−79,446
−79,615
−79,763
−79,89
−79,998
−80,088
−80,161
−80,218
−80,261
−80,291
−80,31
−80,319
−80,32
−80,315
−80,305
−80,293
−80,279
−80,266
−80,254
−80,245
−80,241
−80,242
−80,251
−80,268
−80,293
−80,33
−80,377
−80,437
−80,51
−80,596
−80,696
−80,81
−80,938
−81,081
−81,237
−81,407
−81,591
−81,787
−81,995
−82,214
−82,443
−82,681
−82,927
−83,18
−83,438
−83,7
−83,965
−84,231
−84,498
−84,764
−85,029
−85,291
−85,55
−85,805
−86,055
−86,299
−86,538
−86,77
−86,996
−87,215
−87,428
−87,634
−87,833
−88,026
−88,214
−88,395
−88,572
−88,745
−88,914
−89,08
−89,245
−89,409
−89,575
−89,743
−89,916
−90,094
−90,281
−90,476
−90,682
−90,902
−91,135
−91,385
−91,652
−91,938
−92,244
−92,573
−92,924
−93,298
−93,697
−94,12
−94,568
−95,04
−95,535
−96,054
−96,594
−97,156
−97,737
−98,336
−98,952
−99,582
−100,224
−100,875
−101,532
−102,191
−102,849
−103,5
−104,14
−104,765
−105,369
−105,948
−106,495
−107,005
−107,473
−107,892
−108,256
−108,559
−108,793
−108,954
−109,034
−109,028
−108,93
−108,737
−108,442
−108,043
−107,535
−106,915
−106,182
−105,331
−104,36
−103,27
−102,059
−100,728
−99,278
−97,713
−96,037
−94,254
−92,372
−90,399
−88,344
−86,215
−84,024
−81,783
−79,507
−77,211
−74,909
−72,617
−70,351
−68,126
−65,96
−63,868
−61,864
−59,963
−58,179
−56,525
−55,018
−53,671
−52,491
−51,484
−50,653
−50,003
−49,539
−49,271
−49,201
−49,333
−49,672
−50,219
−50,977
−51,938
−53,086
−54,393
−55,827
−57,357
−58,962
−60,627
−62,344
−64,094
−65,845
−67,557
−69,191
−70,701
−72,047
−73,192
−74,086
−74,754
−75,294
−75,85
−76,623
−77,796
−79,48
−81,763
−84,723
−88,258
−92,141
−96,121
−99,834
−103,005
−105,465
−107,043
−107,628
−107,394
−106,682
−105,768
−104,98
−104,522
−104,651
−105,78
−108,199
−112,032
−117,225
−123,755
−131,912
−141,225
−149,641
−155,023
−155,382
−150,606
−144,154
−137,881
−129,628
−113,593
−79,295
−18,133
70,607
182,479
308,22
435,656
556,117
661,075
740,689
788,439
799,133
771,694
711,777
626,895
525,046
414,804
303,32
196,21
99,158
14,801
−57,402
−117,551
−166,91
−205,337
−230,474
−241,944
−240,234
−227,264
−207,049
−182,818
−157,051
−131,862
−108,472
−88,023
−71,735
−60,256
−53,532
−51,037
−51,884
−55,104
−59,804
−64,979
−69,514
−72,386
−73,055
−71,473
−67,889
−62,751
−56,575
−49,968
−43,649
−38,358
−34,499
−32,139
−31,161
−31,286
−32,204
−33,598
−35,083
−36,271
−36,939
−37,009
−36,47
−35,371
−33,732
−31,538
−28,821
−25,642
−22,045
−18,072
−13,764
−9,164
−4,351
0,556
5,464
10,305
15,037
19,647
24,122
28,446
32,61
36,613
40,456
44,15
47,698
51,105
54,385
57,56
60,667
63,755
66,866
70,033
73,282
76,634
80,105
83,717
87,481
91,406
95,504
99,786
104,265
108,96
113,883
119,05
124,474
130,165
136,123
142,35
148,839
155,579
162,555
169,747
177,124
184,658
192,322
200,091
207,949
215,876
223,844
231,822
239,772
247,659
255,465
263,177
270,782
278,281
285,685
293,019
300,336
307,684
315,087
322,555
330,069
337,603
345,138
352,655
360,132
367,537
374,818
381,91
388,758
395,289
401,403
406,972
411,823
415,784
418,727
420,551
421,188
420,594
418,719
415,515
410,963
405,051
397,777
389,161
379,211
367,948
355,447
341,823
327,244
311,9
295,943
279,503
262,704
245,654
228,467
211,269
194,159
177,24
160,636
144,456
128,82
113,856
99,632
86,179
73,5
61,56
50,345
39,849
30,05
20,93
12,47
4,629
−2,622
−9,321
−15,548
−21,374
−26,874
−32,138
−37,215
−42,137
−46,929
−51,589
−56,115
−60,514
−64,775
−68,888
−72,851
−76,649
−80,269
−83,693
−86,878
−89,787
−92,392
−94,661
−96,58
−98,146
−99,355
−100,22
−100,762
−101
−100,961
−100,672
−100,153
−99,43
−98,532
−97,49
−96,342
−95,122
−93,857
−92,574
−91,293
−90,032
−88,806
−87,626
−86,494
−85,414
−84,391
−83,426
−82,526
−81,692
−80,926
−80,227
−79,595
−79,028
−78,525
−78,088
−77,716
−77,407
−77,161
−76,978
−76,858
−76,801
−76,806
−76,868
−76,985
−77,152
−77,366
−77,623
−77,917
−78,244
−78,6
−78,982
−79,385
−79,807
−80,245
−80,695
−81,155
−81,624
−82,099
−82,579
−83,064
−83,553
−84,045
−84,539
−85,036
−85,535
−86,036
−86,538
−87,041
−87,545
−88,049
−88,553
−89,057
−89,56
−90,062
−90,564
−91,065
−91,566
−92,068
−92,57
−93,074
−93,58
−94,089
−94,601
−95,117
−95,636
−96,158
−96,684
−97,213
−97,744
−98,276
−98,809
−99,34
−99,87
−100,395
−100,915
−101,429
−101,933
−102,428
−102,913
−103,385
−103,845
−104,292
−104,725
−105,144
−105,55
−105,94
−106,317
−106,678
−107,025
−107,357
−107,673
−107,974
−108,259
−108,527
−108,779
−109,013
−109,23
−109,429
−109,609
−109,772
−109,915
−110,041
−110,15
−110,241
−110,316
−110,375
−110,419
−110,45
−110,468
−110,472
−110,465
−110,446
−110,415
−110,372
−110,318
−110,251
−110,173
−110,081
−109,976
−109,857
−109,723
−109,575
−109,412
−109,233
−109,038
−108,829
−108,604
−108,364
−108,11
−107,843
−107,563
−107,27
−106,966
−106,651
−106,326
−105,99
−105,644
−105,289
−104,926
−104,554
−104,175
−103,789
−103,397
−103
−102,599
−102,196
−101,791
−101,387
−100,984
−100,584
−100,19
−99,802
−99,424
−99,056
−98,701
−98,359
−98,033
−97,723
−97,431
−97,157
−96,902
−96,665
−96,449
−96,252
−96,075
−95,918
−95,78
−95,663
−95,564
−95,484
−95,422
−95,377
−95,347
−95,33
−95,327
−95,334
−95,35
−95,372
−95,399
−95,426
−95,452
−95,473
−95,484
−95,482
−95,463
−95,422
−95,354
−95,256
−95,123
−94,951
−94,735
−94,47
−94,154
−93,78
−93,345
−92,843
−92,272
−91,626
−90,902
−90,097
−89,206
−88,228
−87,161
−86,002
−84,75
−83,404
−81,964
−80,428
−78,797
−77,073
−75,258
−73,355
−71,369
−69,304
−67,168
−64,971
−62,721
−60,428
−58,102
−55,754
−53,398
−51,045
−48,711
−46,408
−44,153
−41,961
−39,849
−37,833
−35,929
−34,152
−32,514
−31,029
−29,706
−28,558
−27,594
−26,823
−26,251
−25,884
−25,728
−25,787
−26,063
−26,555
−27,263
−28,179
−29,297
−30,603
−32,077
−33,701
−35,452
−37,305
−39,23
−41,196
−43,174
−45,145
−47,092
−48,995
−50,828
−52,561
−54,152
−55,575
−56,829
−57,913
−58,832
−59,64
−60,429
−61,354
−62,646
−64,52
−67,126
−70,562
−74,866
−79,92
−85,498
−91,268
−96,73
−101,346
−104,6
−106,123
−105,748
−103,621
−100,121
−95,702
−90,983
−86,773
−84,128
−83,92
−86,622
−92,356
−100,788
−111,469
−124,028
−136,618
−145,729
−148,57
−142,501
−127,738
−108,108
−83,787
−52,906
−10,884
51,153
135,592
240,046
360,166
485,086
604,757
709,2
784,401
820,545
814,486
769,603
697,749
611,767
516,96
413,646
300,852
180,111
61,918
−39,965
−116,824
−166,784
−196,622
−215,541
−228,538
−236,041
−234,922
−223,421
−203,058
−177,307
−150,58
−125,375
−102,596
−83,142
−67,529
−56,137
−49,04
−45,451
−44,287
−44,93
−46,762
−48,906
−50,455
−50,436
−48,33
−44,335
−38,929
−32,54
−25,624
−18,688
−12,298
−7,146
−3,63
−1,752
−1,353
−2,157
−3,861
−6,202
−8,886
−11,555
−13,968
−15,984
−17,482
−18,41
−18,744
−18,451
−17,543
−16,066
−14,046
−11,513
−8,518
−5,109
−1,348
2,694
6,973
11,453
16,087
20,824
25,594
30,322
34,962
39,491
43,889
48,148
52,263
56,236
60,094
63,87
67,592
71,287
74,975
78,672
82,402
86,195
90,082
94,1
98,278
102,637
107,2
111,986
117,006
122,272
127,79
133,563
139,599
145,904
152,476
159,316
166,416
173,765
181,347
189,139
197,107
205,221
213,453
221,779
230,182
238,636
247,113
255,577
263,994
272,34
280,602
288,766
296,82
304,765
312,611
320,385
328,127
335,86
343,584
351,286
358,939
366,523
374,017
381,4
388,635
395,671
402,445
408,892
414,938
420,486
425,415
429,574
432,817
435,029
436,136
436,087
434,846
432,386
428,695
423,771
417,634
410,311
401,831
392,232
381,577
369,966
357,538
344,461
330,888
316,942
302,721
288,298
273,747
259,121
244,45
229,765
215,102
200,511
186,077
171,867
157,92
144,251
130,84
117,657
104,695
91,958
79,459
67,225
55,288
43,698
32,541
21,879
11,749
2,155
−6,945
−15,577
−23,746
−31,448
−38,672
−45,403
−51,646
−57,402
−62,665
−67,447
−71,766
−75,665
−79,215
−82,466
−85,445
−88,155
−90,574
−92,689
−94,507
−96,032
−97,27
−98,232
−98,925
−99,37
−99,6
−99,641
−99,508
−99,208
−98,732
−98,085
−97,283
−96,351
−95,322
−94,225
−93,08
−91,912
−90,747
−89,605
−88,502
−87,446
−86,436
−85,474
−84,566
−83,717
−82,937
−82,23
−81,598
−81,04
−80,556
−80,144
−79,802
−79,526
−79,309
−79,148
−79,038
−78,978
−78,966
−79
−79,078
−79,196
−79,351
−79,54
−79,76
−80,007
−80,275
−80,561
−80,861
−81,173
−81,492
−81,817
−82,145
−82,475
−82,804
−83,133
−83,459
−83,783
−84,103
−84,42
−84,734
−85,044
−85,35
−85,653
−85,954
−86,252
−86,548
−86,844
−87,139
−87,435
−87,732
−88,03
−88,329
−88,631
−88,933
−89,237
−89,543
−89,85
−90,158
−90,469
−90,78
−91,094
−91,408
−91,723
−92,039
−92,354
−92,668
−92,98
−93,289
−93,594
−93,895
−94,191
−94,482
−94,765
−95,041
−95,309
−95,569
−95,819
−96,058
−96,287
−96,505
−96,71
−96,904
−97,085
−97,253
−97,409
−97,553
−97,684
−97,804
−97,913
−98,01
−98,097
−98,174
−98,241
−98,3
−98,35
−98,394
−98,431
−98,462
−98,49
−98,514
−98,536
−98,556
−98,577
−98,598
−98,62
−98,646
−98,675
−98,709
−98,749
−98,795
−98,849
−98,912
−98,984
−99,066
−99,159
−99,262
−99,376
−99,502
−99,639
−99,787
−99,947
−100,117
−100,298
−100,489
−100,69
−100,9
−101,118
−101,344
−101,576
−101,813
−102,054
−102,297
−102,542
−102,786
−103,029
−103,269
−103,503
−103,732
−103,952
−104,162
−104,361
−104,547
−104,717
−104,871
−105,006
−105,123
−105,219
−105,294
−105,348
−105,381
−105,391
−105,379
−105,345
−105,288
−105,211
−105,112
−104,993
−104,854
−104,698
−104,525
−104,337
−104,135
−103,922
−103,698
−103,467
−103,229
−102,987
−102,743
−102,499
−102,257
−102,019
−101,79
−101,571
−101,364
−101,173
−100,999
−100,844
−100,71
−100,597
−100,506
−100,437
−100,39
−100,364
−100,36
−100,375
−100,409
−100,46
−100,526
−100,605
−100,693
−100,787
−100,884
−100,979
−101,068
−101,147
−101,212
−101,258
−101,281
−101,276
−101,238
−101,162
−101,042
−100,872
−100,645
−100,354
−99,991
−99,551
−99,027
−98,413
−97,705
−96,9
−95,994
−94,986
−93,875
−92,66
−91,34
−89,913
−88,377
−86,732
−84,976
−83,11
−81,136
−79,057
−76,879
−74,609
−72,258
−69,835
−67,349
−64,808
−62,215
−59,58
−56,915
−54,236
−51,563
−48,92
−46,337
−43,846
−41,481
−39,269
−37,231
−35,379
−33,716
−32,239
−30,946
−29,842
−28,935
−28,232
−27,734
−27,438
−27,337
−27,414
−27,637
−27,968
−28,36
−28,778
−29,2
−29,618
−30,037
−30,47
−30,94
−31,456
−32,01
−32,595
−33,2
−33,818
−34,45
−35,103
−35,79
−36,532
−37,354
−38,272
−39,307
−40,462
−41,717
−43,094
−44,629
−46,418
−48,637
−51,45
−54,957
−59,235
−64,317
−70,074
−76,283
−82,617
−88,575
−93,678
−97,532
−99,847
−100,483
−99,579
−97,432
−94,363
−90,879
−87,634
−85,33
−84,492
−85,54
−88,644
−93,707
−100,998
−109,984
−118,354
−123,537
−123,197
−116,647
−107,148
−97,688
−87,094
−70,409
−37,34
22,473
111,61
227,01
359,798
496,479
626,9
740,355
825,255
874,451
881,081
844,789
772,993
673,228
555,959
430,04
301,316
178,693
69,95
−19,631
−86,88
−134,935
−169,716
−194,796
−212,164
−220,758
−217,913
−204,425
−183,046
−157,14
−130,821
−106,257
−84,3
−66,209
−52,716
−43,821
−39,209
−37,963
−38,867
−41,128
−44,019
−46,355
−47,014
−45,429
−41,49
−35,586
−28,407
−20,481
−12,306
−4,638
1,741
6,372
9,087
9,992
9,421
7,689
5,091
2,029
−1,08
−3,952
−6,384
−8,246
−9,492
−10,083
−9,985
−9,222
−7,832
−5,84
−3,279
−0,186
3,39
7,373
11,681
16,239
20,978
25,834
30,736
35,601
40,357
44,961
49,387
53,628
57,677
61,53
65,194
68,695
72,065
75,339
78,547
81,715
84,872
88,049
91,282
94,612
98,073
101,692
105,491
109,485
113,694
118,134
122,817
127,748
132,93
138,367
144,064
150,032
156,278
162,809
169,625
176,72
184,085
191,709
199,575
207,661
215,936
224,359
232,895
241,511
250,176
258,865
267,544
276,176
284,723
293,152
301,436
309,559
317,506
325,265
332,839
340,24
347,49
354,628
361,672
368,62
375,467
382,197
388,792
395,237
401,5
407,53
413,273
418,666
423,635
428,108
431,987
435,153
437,492
438,889
439,257
438,541
436,69
433,659
429,419
423,953
417,268
409,405
400,4
390,285
379,122
366,984
353,975
340,234
325,877
311,002
295,701
280,042
264,113
248,013
231,822
215,611
199,446
183,379
167,486
151,869
136,593
121,704
107,23
93,17
79,558
66,459
53,925
42,002
30,721
20,084
10,109
0,822
−7,775
−15,694
−22,973
−29,69
−35,891
−41,596
−46,828
−51,601
−55,95
−59,946
−63,636
−67,053
−70,228
−73,175
−75,921
−78,503
−80,93
−83,197
−85,279
−87,138
−88,753
−90,128
−91,262
−92,16
−92,82
−93,23
−93,395
−93,331
−93,057
−92,588
−91,938
−91,117
−90,144
−89,055
−87,884
−86,672
−85,45
−84,237
−83,054
−81,919
−80,847
−79,851
−78,94
−78,112
−77,368
−76,713
−76,147
−75,677
−75,3
−75,012
−74,808
−74,682
−74,631
−74,648
−74,731
−74,873
−75,07
−75,318
−75,615
−75,959
−76,345
−76,77
−77,227
−77,713
−78,22
−78,745
−79,281
−79,823
−80,367
−80,908
−81,443
−81,97
−82,485
−82,987
−83,473
−83,943
−84,396
−84,83
−85,246
−85,644
−86,024
−86,387
−86,735
−87,067
−87,386
−87,693
−87,989
−88,276
−88,555
−88,828
−89,095
−89,358
−89,619
−89,878
−90,138
−90,4
−90,665
−90,934
−91,209
−91,49
−91,779
−92,076
−92,381
−92,694
−93,015
−93,344
−93,681
−94,025
−94,374
−94,729
−95,089
−95,453
−95,818
−96,185
−96,552
−96,917
−97,279
−97,636
−97,989
−98,334
−98,673
−99,002
−99,322
−99,632
−99,931
−100,219
−100,494
−100,757
−101,007
−101,243
−101,467
−101,677
−101,874
−102,058
−102,229
−102,389
−102,536
−102,673
−102,798
−102,914
−103,02
−103,116
−103,204
−103,284
−103,357
−103,423
−103,484
−103,54
−103,592
−103,641
−103,687
−103,731
−103,773
−103,814
−103,853
−103,892
−103,93
−103,967
−104,004
−104,04
−104,075
−104,109
−104,141
−104,172
−104,201
−104,227
−104,249
−104,268
−104,283
−104,293
−104,298
−104,298
−104,292
−104,281
−104,263
−104,24
−104,21
−104,173
−104,129
−104,077
−104,018
−103,951
−103,875
−103,791
−103,7
−103,601
−103,494
−103,382
−103,263
−103,14
−103,011
−102,88
−102,745
−102,61
−102,473
−102,338
−102,205
−102,077
−101,954
−101,838
−101,73
−101,632
−101,546
−101,472
−101,411
−101,364
−101,333
−101,318
−101,321
−101,343
−101,385
−101,448
−101,534
−101,644
−101,779
−101,94
−102,126
−102,337
−102,573
−102,833
−103,117
−103,422
−103,749
−104,094
−104,457
−104,835
−105,225
−105,625
−106,031
−106,44
−106,847
−107,249
−107,641
−108,02
−108,38
−108,717
−109,027
−109,307
−109,55
−109,752
−109,907
−110,011
−110,056
−110,037
−109,946
−109,777
−109,524
−109,18
−108,742
−108,205
−107,565
−106,82
−105,969
−105,012
−103,946
−102,772
−101,487
−100,091
−98,582
−96,962
−95,23
−93,386
−91,434
−89,377
−87,225
−84,987
−82,67
−80,281
−77,824
−75,308
−72,748
−70,159
−67,556
−64,959
−62,389
−59,878
−57,466
−55,192
−53,084
−51,161
−49,435
−47,917
−46,615
−45,54
−44,695
−44,07
−43,652
−43,434
−43,413
−43,584
−43,928
−44,402
−44,942
−45,497
−46,034
−46,533
−46,985
−47,369
−47,672
−47,896
−48,061
−48,212
−48,377
−48,557
−48,742
−48,927
−49,131
−49,419
−49,87
−50,523
−51,394
−52,484
−53,803
−55,427
−57,4
−59,698
−62,305
−65,225
−68,542
−72,495
−77,303
−82,991
−89,506
−96,777
−104,607
−112,797
−121
−128,463
−134,383
−138,286
−139,919
−139,215
−136,355
−131,487
−124,995
−117,925
−111,51
−106,805
−104,66
−105,58
−109,971
−117,314
−125,667
−132,87
−136,373
−136,386
−136,213
−135,745
−132,055
−116,653
−76,568
−7,527
87,771
200,19
315,968
430,651
543,185
650,685
747,758
818,168
846,498
828,149
767,154
678,993
578,469
469,339
352,604
227,635
98,903
−18,098
−110,8
−173,451
−208,234
−226,889
−238,177
−244,937
−246,257
−237,971
−219,324
−193,141
−163,194
−133,677
−106,994
−84,307
−66,615
−54,253
−47,014
−44,25
−44,889
−47,895
−52,343
−57,138
−61,062
−62,99
−62,373
−59,287
−54,148
−47,551
−40,069
−32,305
−24,993
−18,889
−14,412
−11,625
−10,378
−10,368
−11,287
−12,844
−14,705
−16,519
−18,055
−19,195
−19,863
−20,013
−19,617
−18,651
−17,128
−15,097
−12,592
−9,636
−6,269
−2,537
1,494
5,749
10,176
14,749
19,431
24,181
28,947
33,652
38,249
42,717
47,037
51,202
55,21
59,056
62,761
66,359
69,882
73,359
76,815
80,264
83,728
87,236
90,818
94,512
98,349
102,351
106,541
110,941
115,565
120,431
125,55
130,926
136,571
142,494
148,697
155,185
161,952
168,989
176,283
183,814
191,551
199,467
207,536
215,732
224,041
232,44
240,901
249,393
257,876
266,321
274,713
283,035
291,274
299,427
307,493
315,494
323,47
331,444
339,42
347,39
355,32
363,183
370,963
378,633
386,168
393,526
400,635
407,43
413,852
419,816
425,226
429,96
433,86
436,81
438,732
439,567
439,292
437,877
435,289
431,514
426,554
420,429
413,183
404,857
395,477
385,103
373,813
361,715
348,959
335,654
321,868
307,663
293,087
278,194
263,058
247,732
232,264
216,699
201,082
185,474
169,962
154,616
139,503
124,668
110,128
95,929
82,147
68,85
56,104
43,961
32,454
21,618
11,492
2,095
−6,563
−14,498
−21,753
−28,377
−34,427
−39,954
−44,994
−49,599
−53,833
−57,753
−61,412
−64,849
−68,091
−71,165
−74,1
−76,916
−79,622
−82,216
−84,679
−86,988
−89,109
−91,017
−92,695
−94,127
−95,297
−96,196
−96,821
−97,178
−97,284
−97,155
−96,803
−96,247
−95,504
−94,6
−93,562
−92,423
−91,217
−89,975
−88,719
−87,473
−86,255
−85,079
−83,958
−82,898
−81,9
−80,967
−80,102
−79,308
−78,588
−77,943
−77,374
−76,879
−76,456
−76,105
−75,825
−75,615
−75,475
−75,404
−75,401
−75,466
−75,6
−75,801
−76,068
−76,398
−76,788
−77,232
−77,729
−78,272
−78,858
−79,481
−80,138
−80,825
−81,537
−82,271
−83,025
−83,793
−84,573
−85,362
−86,158
−86,957
−87,757
−88,556
−89,351
−90,14
−90,92
−91,69
−92,447
−93,189
−93,913
−94,618
−95,302
−95,963
−96,6
−97,211
−97,795
−98,353
−98,884
−99,388
−99,864
−100,315
−100,74
−101,14
−101,516
−101,87
−102,201
−102,512
−102,803
−103,076
−103,332
−103,571
−103,795
−104,004
−104,199
−104,381
−104,551
−104,708
−104,855
−104,991
−105,118
−105,236
−105,346
−105,449
−105,546
−105,638
−105,724
−105,806
−105,885
−105,959
−106,031
−106,099
−106,163
−106,225
−106,282
−106,336
−106,385
−106,429
−106,467
−106,499
−106,523
−106,539
−106,546
−106,544
−106,532
−106,51
−106,477
−106,435
−106,382
−106,318
−106,244
−106,16
−106,066
−105,962
−105,848
−105,724
−105,59
−105,446
−105,292
−105,129
−104,956
−104,774
−104,583
−104,382
−104,172
−103,953
−103,726
−103,489
−103,244
−102,991
−102,731
−102,464
−102,19
−101,911
−101,626
−101,337
−101,045
−100,748
−100,449
−100,147
−99,843
−99,537
−99,229
−98,921
−98,611
−98,302
−97,993
−97,686
−97,381
−97,078
−96,78
−96,485
−96,197
−95,915
−95,641
−95,377
−95,123
−94,881
−94,654
−94,443
−94,249
−94,075
−93,922
−93,792
−93,686
−93,606
−93,553
−93,527
−93,529
−93,56
−93,62
−93,709
−93,827
−93,974
−94,149
−94,352
−94,582
−94,837
−95,114
−95,413
−95,729
−96,06
−96,404
−96,756
−97,114
−97,472
−97,827
−98,174
−98,509
−98,824
−99,115
−99,374
−99,594
−99,77
−99,892
−99,954
−99,946
−99,864
−99,699
−99,448
−99,105
−98,664
−98,122
−97,476
−96,721
−95,856
−94,875
−93,772
−92,546
−91,194
−89,717
−88,115
−86,392
−84,548
−82,592
−80,531
−78,375
−76,132
−73,806
−71,398
−68,918
−66,382
−63,811
−61,23
−58,664
−56,135
−53,672
−51,307
−49,066
−46,965
−45,013
−43,2
−41,529
−40,008
−38,655
−37,491
−36,528
−35,758
−35,175
−34,768
−34,523
−34,425
−34,447
−34,543
−34,69
−34,883
−35,137
−35,487
−35,951
−36,523
−37,186
−37,92
−38,712
−39,569
−40,505
−41,513
−42,589
−43,736
−44,965
−46,299
−47,762
−49,326
−50,925
−52,551
−54,254
−56,145
−58,439
−61,299
−64,803
−69,082
−74,217
−80,087
−86,458
−92,926
−98,877
−103,858
−107,536
−109,462
−109,407
−107,502
−104,048
−99,625
−95,018
−90,782
−87,466
−85,877
−86,706
−90,362
−96,952
−106,422
−117,83
−129,158
−138,612
−144,173
−145,448
−145,348
−145,245
−142,895
−132,624
−104,123
−49,002
33,265
138,525
259,297
386,545
513,558
631,867
727,827
788,294
805,132
778,451
720,127
645,064
562,1
474,204
377,329
269,211
155,996
47,044
−45,689
−115,876
−166,278
−200,832
−225,044
−241,409
−247,373
−242,393
−227,371
−204,55
−178,419
−152,186
−127,232
−104,639
−85,21
−69,498
−57,948
−50,394
−45,933
−43,593
−42,864
−43,216
−43,874
−44,088
−43,065
−40,45
−36,561
−31,859
−26,685
−21,408
−16,414
−12,137
−9,139
−7,687
−7,664
−8,819
−10,8
−13,242
−15,873
−18,397
−20,473
−21,884
−22,507
−22,281
−21,248
−19,455
−16,933
−13,746
−9,968
−5,668
−0,941
4,11
9,385
14,76
20,139
25,454
30,643
35,661
40,469
45,032
49,343
53,413
57,254
60,88
64,3
67,529
70,598
73,55
76,43
79,287
82,16
85,079
88,072
91,167
94,385
97,748
101,265
104,943
108,792
112,824
117,055
121,5
126,166
131,059
136,188
141,563
147,196
153,095
159,259
165,685
172,366
179,292
186,451
193,82
201,37
209,071
216,895
224,818
232,824
240,89
248,987
257,08
265,127
273,096
280,97
288,73
296,362
303,86
311,227
318,483
325,67
332,813
339,919
346,981
353,961
360,832
367,564
374,131
380,512
386,672
392,554
398,107
403,284
408,02
412,242
415,843
418,675
420,617
421,58
421,5
420,355
418,127
414,793
410,343
404,768
398,075
390,291
381,431
371,498
360,51
348,499
335,546
321,797
307,381
292,409
276,975
261,145
244,988
228,589
212,032
195,392
178,747
162,174
145,776
129,686
114,045
98,986
84,589
70,879
57,877
45,607
34,099
23,387
13,491
4,406
−3,875
−11,356
−18,046
−23,972
−29,191
−33,801
−37,924
−41,675
−45,136
−48,357
−51,377
−54,235
−56,969
−59,61
−62,174
−64,662
−67,079
−69,436
−71,747
−74,013
−76,214
−78,31
−80,24
−81,956
−83,429
−84,643
−85,591
−86,272
−86,687
−86,848
−86,779
−86,508
−86,06
−85,451
−84,696
−83,813
−82,828
−81,773
−80,686
−79,599
−78,534
−77,509
−76,54
−75,638
−74,813
−74,067
−73,396
−72,796
−72,265
−71,805
−71,416
−71,1
−70,852
−70,671
−70,551
−70,491
−70,487
−70,538
−70,639
−70,789
−70,983
−71,222
−71,503
−71,827
−72,189
−72,587
−73,018
−73,478
−73,964
−74,473
−75,001
−75,544
−76,1
−76,666
−77,239
−77,817
−78,398
−78,979
−79,558
−80,134
−80,704
−81,267
−81,821
−82,364
−82,895
−83,412
−83,915
−84,401
−84,87
−85,32
−85,751
−86,161
−86,551
−86,92
−87,267
−87,592
−87,895
−88,175
−88,434
−88,671
−88,886
−89,079
−89,252
−89,404
−89,537
−89,651
−89,747
−89,827
−89,891
−89,941
−89,978
−90,004
−90,021
−90,029
−90,032
−90,031
−90,027
−90,023
−90,02
−90,02
−90,025
−90,037
−90,056
−90,085
−90,126
−90,178
−90,244
−90,324
−90,419
−90,531
−90,659
−90,805
−90,969
−91,15
−91,35
−91,568
−91,803
−92,056
−92,325
−92,61
−92,909
−93,221
−93,545
−93,878
−94,219
−94,567
−94,919
−95,273
−95,627
−95,979
−96,327
−96,669
−97,003
−97,326
−97,637
−97,934
−98,215
−98,479
−98,725
−98,95
−99,155
−99,337
−99,497
−99,632
−99,744
−99,831
−99,893
−99,931
−99,946
−99,937
−99,906
−99,854
−99,782
−99,693
−99,587
−99,466
−99,333
−99,189
−99,038
−98,88
−98,719
−98,556
−98,395
−98,237
−98,086
−97,942
−97,809
−97,688
−97,582
−97,493
−97,422
−97,372
−97,345
−97,342
−97,364
−97,413
−97,489
−97,592
−97,723
−97,881
−98,066
−98,277
−98,511
−98,769
−99,048
−99,346
−99,66
−99,989
−100,329
−100,676
−101,029
−101,384
−101,736
−102,081
−102,417
−102,739
−103,043
−103,325
−103,58
−103,804
−103,99
−104,135
−104,231
−104,274
−104,258
−104,177
−104,027
−103,804
−103,504
−103,125
−102,666
−102,123
−101,496
−100,782
−99,978
−99,083
−98,096
−97,014
−95,836
−94,56
−93,187
−91,719
−90,159
−88,511
−86,776
−84,956
−83,055
−81,082
−79,048
−76,967
−74,856
−72,733
−70,619
−68,548
−66,546
−64,643
−62,863
−61,222
−59,731
−58,404
−57,253
−56,292
−55,523
−54,936
−54,51
−54,232
−54,079
−54,031
−54,058
−54,112
−54,15
−54,14
−54,052
−53,883
−53,632
−53,295
−52,868
−52,352
−51,758
−51,125
−50,5
−49,91
−49,385
−48,955
−48,659
−48,569
−48,736
−49,186
−49,935
−50,959
−52,24
−53,79
−55,598
−57,636
−59,923
−62,481
−65,371
−68,767
−72,789
−77,492
−82,966
−89,211
−96,083
−103,394
−110,753
−117,594
−123,452
−127,871
−130,364
−130,688
−128,836
−124,978
−119,691
−113,748
−107,92
−103,189
−100,489
−100,566
−103,959
−110,746
−120,681
−132,646
−144,134
−152,422
−154,881
−150,462
−141,323
−128,992
−112,091
−86,305
−43,175
24,581
117,521
231,638
358,987
488,439
610,445
714,926
789,25
824,487
817,938
773,681
703,391
619,612
527,205
424,816
310,655
185,034
57,905
−53,242
−136,931
−188,593
−212,977
−223,483
−228,551
−230,733
−228,967
−218,799
−199,445
−173,868
−145,649
−118,355
−93,937
−73,262
−57,021
−45,53
−38,694
−35,827
−35,895
−38,206
−42,055
−46,423
−50,263
−52,529
−52,67
−50,868
−47,585
−43,213
−38,191
−33,038
−28,339
−24,764
−22,654
−21,927
−22,323
−23,505
−25,145
−26,966
−28,679
−29,944
−30,551
−30,419
−29,511
−27,876
−25,573
−22,628
−19,102
−15,08
−10,64
−5,88
−0,915
4,166
9,282
14,355
19,343
24,206
28,91
33,438
37,773
41,91
45,854
49,61
53,185
56,591
59,85
62,997
66,082
69,152
72,241
75,381
78,594
81,902
85,328
88,887
92,588
96,442
100,459
104,652
109,039
113,634
118,449
123,491
128,764
134,272
140,024
146,027
152,29
158,817
165,605
172,65
179,946
187,481
195,238
203,191
211,303
219,539
227,87
236,266
244,704
253,151
261,571
269,928
278,19
286,33
294,336
302,194
309,894
317,439
324,842
332,124
339,321
346,448
353,502
360,474
367,34
374,083
380,69
387,133
393,369
399,343
404,989
410,238
415,019
419,237
422,775
425,517
427,341
428,165
427,94
426,622
424,187
420,606
415,857
409,944
402,899
394,763
385,58
375,399
364,272
352,295
339,592
326,282
312,48
298,259
283,672
268,781
253,646
238,336
222,922
207,453
191,969
176,521
161,175
146,006
131,094
116,476
102,171
88,203
74,611
61,467
48,847
36,804
25,382
14,609
4,51
−4,886
−13,556
−21,509
−28,776
−35,403
−41,457
−46,972
−51,972
−56,492
−60,574
−64,285
−67,688
−70,827
−73,733
−76,434
−78,959
−81,336
−83,589
−85,718
−87,708
−89,536
−91,166
−92,586
−93,788
−94,764
−95,51
−96,013
−96,265
−96,275
−96,059
−95,632
−95,009
−94,203
−93,226
−92,107
−90,876
−89,566
−88,214
−86,847
−85,488
−84,158
−82,875
−81,654
−80,507
−79,441
−78,455
−77,552
−76,736
−76,007
−75,371
−74,826
−74,369
−73,997
−73,706
−73,493
−73,356
−73,29
−73,293
−73,363
−73,496
−73,69
−73,945
−74,258
−74,625
−75,042
−75,505
−76,009
−76,549
−77,121
−77,719
−78,339
−78,976
−79,626
−80,286
−80,952
−81,62
−82,289
−82,954
−83,614
−84,266
−84,909
−85,541
−86,159
−86,764
−87,353
−87,925
−88,481
−89,018
−89,538
−90,038
−90,518
−90,978
−91,418
−91,838
−92,236
−92,615
−92,972
−93,31
−93,627
−93,924
−94,203
−94,462
−94,704
−94,927
−95,133
−95,322
−95,495
−95,652
−95,793
−95,919
−96,03
−96,127
−96,21
−96,279
−96,335
−96,378
−96,408
−96,425
−96,43
−96,424
−96,405
−96,376
−96,335
−96,285
−96,224
−96,155
−96,077
−95,991
−95,898
−95,8
−95,697
−95,589
−95,479
−95,368
−95,255
−95,144
−95,034
−94,928
−94,825
−94,728
−94,637
−94,553
−94,477
−94,411
−94,355
−94,31
−94,277
−94,257
−94,25
−94,257
−94,28
−94,317
−94,369
−94,438
−94,522
−94,621
−94,736
−94,866
−95,01
−95,168
−95,338
−95,52
−95,711
−95,911
−96,118
−96,33
−96,546
−96,764
−96,982
−97,199
−97,412
−97,62
−97,821
−98,014
−98,197
−98,368
−98,526
−98,67
−98,798
−98,909
−99,002
−99,076
−99,131
−99,166
−99,182
−99,177
−99,154
−99,111
−99,051
−98,974
−98,881
−98,775
−98,656
−98,528
−98,392
−98,251
−98,106
−97,962
−97,82
−97,683
−97,553
−97,433
−97,326
−97,232
−97,155
−97,097
−97,06
−97,045
−97,056
−97,093
−97,16
−97,256
−97,384
−97,543
−97,734
−97,958
−98,212
−98,498
−98,812
−99,153
−99,519
−99,907
−100,314
−100,737
−101,172
−101,614
−102,059
−102,503
−102,94
−103,366
−103,773
−104,158
−104,515
−104,84
−105,126
−105,37
−105,565
−105,707
−105,791
−105,81
−105,759
−105,631
−105,42
−105,12
−104,727
−104,236
−103,643
−102,945
−102,142
−101,232
−100,215
−99,093
−97,866
−96,534
−95,098
−93,56
−91,921
−90,185
−88,355
−86,434
−84,428
−82,346
−80,197
−77,99
−75,732
−73,429
−71,088
−68,725
−66,353
−63,988
−61,651
−59,361
−57,145
−55,038
−53,07
−51,272
−49,67
−48,276
−47,103
−46,164
−45,468
−45,022
−44,823
−44,854
−45,094
−45,532
−46,147
−46,915
−47,8
−48,743
−49,692
−50,604
−51,434
−52,149
−52,722
−53,124
−53,337
−53,365
−53,218
−52,931
−52,54
−52,058
−51,496
−50,886
−50,265
−49,706
−49,283
−49,041
−49,033
−49,344
−50,055
−51,243
−52,985
−55,285
−58,092
−61,443
−65,419
−70,075
−75,501
−81,705
−88,571
−96,067
−104,236
−112,811
−121,252
−129,039
−135,512
−140,042
−142,408
−142,408
−139,571
−134,726
−129,309
−123,638
−118,963
−115,148
−110,291
−105,4
−101,304
−99,013
−102,423
−112,584
−126,685
−139,471
−139,644
−114,298
−58,33
26,192
130,071
238,34
343,776
447,112
548,292
647,322
735,138
793,644
812,678
790,121
732,478
655,575
567,71
468,583
357,937
234,918
107,384
−7,883
−99,364
−162,049
−199,072
−221,248
−235,435
−243,191
−243,225
−232,252
−210,453
−181,222
−148,665
−116,937
−88,587
−65,142
−47,729
−36,66
−31,647
−31,803
−35,789
−42,311
−50,113
−57,763
−63,903
−67,448
−67,891
−65,398
−60,489
−53,829
−46,162
−38,271
−30,939
−24,877
−20,436
−17,618
−16,233
−15,967
−16,481
−17,451
−18,563
−19,529
−20,2
−20,526
−20,483
−20,067
−19,233
−17,944
−16,204
−14,036
−11,465
−8,503
−5,179
−1,532
2,366
6,435
10,639
14,962
19,4
23,941
28,557
33,198
37,808
42,352
46,802
51,137
55,345
59,418
63,362
67,202
70,975
74,717
78,446
82,174
85,908
89,662
93,457
97,32
101,283
105,368
109,6
114,002
118,596
123,402
128,439
133,719
139,248
145,027
151,062
157,354
163,901
170,695
177,717
184,94
192,34
199,891
207,572
215,364
223,245
231,192
239,18
247,18
255,165
263,116
271,011
278,836
286,59
294,277
301,921
309,563
317,238
324,977
332,804
340,718
348,708
356,759
364,842
372,934
381,003
389,006
396,9
404,634
412,133
419,318
426,082
432,276
437,752
442,364
445,967
448,457
449,761
449,816
448,582
446,022
442,108
436,829
430,175
422,14
412,732
401,965
389,891
376,627
362,307
347,089
331,144
314,605
297,588
280,209
262,575
244,794
226,975
209,218
191,635
174,36
157,541
141,328
125,836
111,121
97,209
84,099
71,776
60,236
49,48
39,491
30,252
21,741
13,937
6,811
0,319
−5,622
−11,127
−16,314
−21,272
−26,061
−30,716
−35,257
−39,698
−44,051
−48,315
−52,483
−56,547
−60,499
−64,332
−68,041
−71,602
−74,981
−78,127
−80,977
−83,485
−85,654
−87,491
−89,01
−90,232
−91,153
−91,767
−92,122
−92,279
−92,174
−91,719
−90,998
−90,031
−88,835
−87,675
−85,983
−83,196
−80,178
−77,204
−75,832
−77,924
−81,445
−85,033
−86,66
−83,545
−78,156
−72,591
−68,283
−67,602
−68,857
−70,334
−71,654
−71,772
−71,298
−71,01
−70,762
−70,653
−70,632
−70,543
−70,491
−70,557
−70,712
−70,949
−71,274
−71,684
−72,168
−72,721
−73,323
−73,952
−74,613
−75,309
−76,033
−76,781
−77,549
−78,332
−79,127
−79,932
−80,743
−81,555
−82,363
−83,163
−83,952
−84,727
−85,484
−86,22
−86,932
−87,617
−88,273
−88,899
−89,491
−90,05
−90,573
−91,059
−91,508
−91,919
−92,292
−92,626
−92,922
−93,181
−93,404
−93,591
−93,744
−93,864
−93,953
−94,013
−94,045
−94,053
−94,038
−94,003
−93,951
−93,884
−93,806
−93,719
−93,626
−93,528
−93,429
−93,331
−93,235
−93,144
−93,059
−92,982
−92,913
−92,856
−92,809
−92,776
−92,755
−92,748
−92,755
−92,777
−92,813
−92,864
−92,93
−93,01
−93,104
−93,21
−93,329
−93,458
−93,597
−93,743
−93,896
−94,054
−94,214
−94,375
−94,536
−94,694
−94,849
−94,998
−95,141
−95,277
−95,404
−95,522
−95,63
−95,729
−95,817
−95,895
−95,963
−96,02
−96,068
−96,105
−96,133
−96,152
−96,161
−96,162
−96,154
−96,138
−96,115
−96,085
−96,05
−96,009
−95,965
−95,919
−95,87
−95,822
−95,775
−95,729
−95,687
−95,648
−95,614
−95,585
−95,562
−95,545
−95,534
−95,529
−95,53
−95,536
−95,546
−95,561
−95,578
−95,598
−95,62
−95,644
−95,668
−95,694
−95,72
−95,747
−95,775
−95,804
−95,833
−95,862
−95,892
−95,922
−95,953
−95,983
−96,013
−96,042
−96,072
−96,101
−96,131
−96,159
−96,188
−96,218
−96,248
−96,281
−96,316
−96,356
−96,402
−96,455
−96,519
−96,593
−96,68
−96,781
−96,897
−97,029
−97,176
−97,34
−97,519
−97,712
−97,92
−98,14
−98,373
−98,616
−98,868
−99,127
−99,391
−99,658
−99,925
−100,189
−100,448
−100,699
−100,939
−101,164
−101,371
−101,557
−101,717
−101,846
−101,94
−101,991
−101,994
−101,941
−101,825
−101,64
−101,379
−101,038
−100,61
−100,092
−99,481
−98,775
−97,974
−97,073
−96,07
−94,963
−93,749
−92,426
−90,993
−89,45
−87,794
−86,029
−84,159
−82,19
−80,128
−77,978
−75,74
−73,419
−71,026
−68,576
−66,085
−63,572
−61,057
−58,568
−56,141
−53,81
−51,609
−49,561
−47,675
−45,962
−44,437
−43,109
−41,994
−41,097
−40,401
−39,895
−39,568
−39,402
−39,385
−39,483
−39,641
−39,814
−39,968
−40,083
−40,165
−40,214
−40,218
−40,175
−40,085
−39,958
−39,839
−39,756
−39,727
−39,79
−39,967
−40,289
−40,815
−41,565
−42,536
−43,743
−45,171
−46,79
−48,651
−50,821
−53,389
−56,523
−60,342
−64,834
−70,002
−75,829
−82,13
−88,683
−95,206
−101,228
−106,394
−110,66
−113,975
−116,311
−117,911
−118,951
−119,589
−120,254
−121,21
−122,33
−123,648
−125,347
−127,273
−129,402
−131,879
−134,511
−137,231
−140,386
−142,893
−142,186
−136,479
−123,679
−104,073
−81,363
−55,769
−25,47
14,222
72,459
152,437
252,503
368,557
490,031
607,158
710,431
786,392
824,973
822,019
779,427
707,981
620,768
524,278
420,429
308,848
190,071
72,811
−31,053
−113,279
−170,481
−207,106
−230,088
−243,289
−247,787
−241,976
−225,473
−200,628
−171,22
−141,834
−115,527
−93,95
−78,246
−68,478
−64,113
−64,356
−67,776
−72,692
−77,773
−81,599
−82,845
−80,962
−75,88
−67,872
−57,669
−46,149
−34,113
−22,544
−12,414
−4,221
1,849
5,838
8,033
8,728
8,205
6,864
5,132
3,291
1,509
−0,138
−1,649
−2,966
−3,983
−4,617
−4,8
−4,489
−3,665
−2,313
−0,422
1,991
4,88
8,185
11,834
15,766
19,941
24,325
28,884
33,571
38,324
43,075
47,757
52,329
56,764
61,047
65,174
69,153
72,999
76,742
80,417
84,053
87,673
91,294
94,933
98,616
102,374
106,241
110,254
114,444
118,834
123,448
128,303
133,408
138,774
144,405
150,301
156,473
162,925
169,656
176,664
183,939
191,464
199,223
207,185
215,313
223,572
231,925
240,346
248,816
257,309
265,794
274,236
282,593
290,832
298,94
306,902
314,706
322,353
329,849
337,225
344,539
351,827
359,107
366,378
373,61
380,785
387,892
394,917
401,842
408,634
415,233
421,584
427,639
433,318
438,517
443,095
446,864
449,679
451,437
452,058
451,497
449,707
446,625
442,215
436,457
429,341
420,874
411,059
399,886
387,402
373,704
358,934
343,292
326,942
310,009
292,617
274,877
256,905
238,836
220,787
202,854
185,16
167,838
151,028
134,888
119,518
104,964
91,241
78,324
66,201
54,879
44,35
34,593
25,587
17,298
9,693
2,749
−3,6
−9,452
−14,907
−20,072
−25,025
−29,8
−34,428
−38,923
−43,295
−47,556
−51,707
−55,735
−59,633
−63,402
−67,033
−70,521
−73,835
−76,921
−79,732
−82,229
−84,385
−86,197
−87,66
−88,776
−89,557
−90,025
−90,204
−90,128
−89,82
−89,3
−88,592
−87,722
−86,725
−85,645
−84,516
−83,367
−82,223
−81,102
−80,023
−79
−78,041
−77,146
−76,319
−75,558
−74,868
−74,252
−73,713
−73,25
−72,862
−72,545
−72,296
−72,117
−72,003
−71,953
−71,964
−72,034
−72,161
−72,345
−72,585
−72,875
−73,213
−73,594
−74,013
−74,466
−74,948
−75,454
−75,978
−76,517
−77,067
−77,625
−78,187
−78,75
−79,312
−79,869
−80,421
−80,965
−81,5
−82,025
−82,539
−83,041
−83,532
−84,01
−84,477
−84,931
−85,373
−85,803
−86,223
−86,632
−87,031
−87,421
−87,803
−88,178
−88,548
−88,913
−89,275
−89,635
−89,995
−90,355
−90,717
−91,082
−91,449
−91,82
−92,195
−92,574
−92,956
−93,342
−93,732
−94,124
−94,518
−94,913
−95,309
−95,703
−96,096
−96,485
−96,87
−97,249
−97,621
−97,983
−98,336
−98,678
−99,006
−99,32
−99,619
−99,9
−100,163
−100,406
−100,629
−100,829
−101,006
−101,159
−101,287
−101,39
−101,467
−101,518
−101,544
−101,544
−101,519
−101,469
−101,396
−101,3
−101,182
−101,043
−100,885
−100,709
−100,517
−100,31
−100,091
−99,86
−99,62
−99,373
−99,12
−98,864
−98,606
−98,347
−98,091
−97,838
−97,591
−97,351
−97,119
−96,898
−96,689
−96,492
−96,309
−96,141
−95,989
−95,852
−95,731
−95,625
−95,536
−95,462
−95,402
−95,357
−95,325
−95,305
−95,295
−95,296
−95,304
−95,319
−95,34
−95,366
−95,394
−95,423
−95,454
−95,483
−95,511
−95,535
−95,557
−95,573
−95,584
−95,59
−95,589
−95,581
−95,566
−95,545
−95,516
−95,482
−95,442
−95,396
−95,347
−95,296
−95,242
−95,19
−95,14
−95,094
−95,055
−95,026
−95,009
−95,006
−95,021
−95,055
−95,111
−95,191
−95,296
−95,428
−95,589
−95,779
−95,999
−96,25
−96,532
−96,845
−97,188
−97,561
−97,962
−98,391
−98,844
−99,322
−99,82
−100,336
−100,868
−101,411
−101,962
−102,516
−103,07
−103,617
−104,152
−104,669
−105,161
−105,619
−106,037
−106,407
−106,722
−106,974
−107,158
−107,267
−107,296
−107,241
−107,098
−106,86
−106,525
−106,086
−105,54
−104,882
−104,108
−103,214
−102,196
−101,052
−99,784
−98,391
−96,876
−95,239
−93,479
−91,6
−89,61
−87,519
−85,341
−83,092
−80,791
−78,46
−76,133
−73,841
−71,613
−69,481
−67,462
−65,572
−63,828
−62,245
−60,838
−59,615
−58,566
−57,677
−56,932
−56,316
−55,808
−55,382
−54,99
−54,588
−54,139
−53,61
−52,991
−52,282
−51,479
−50,58
−49,591
−48,53
−47,442
−46,382
−45,39
−44,501
−43,75
−43,181
−42,868
−42,879
−43,251
−44,012
−45,162
−46,681
−48,579
−50,845
−53,423
−56,308
−59,513
−63,064
−67,101
−71,745
−77,011
−82,98
−89,739
−97,152
−105,003
−112,944
−120,341
−126,703
−131,741
−134,973
−135,94
−134,582
−130,981
−125,528
−119,16
−112,596
−106,352
−101,312
−98,487
−98,626
−102,366
−110,15
−120,979
−132,63
−143,104
−149,981
−152,478
−153,723
−155,714
−156,746
−151,482
−127,97
−74,443
11,841
127,463
262,268
401,936
537,383
659,808
758,543
824,573
848,488
828,035
770,191
686,552
589,923
485,685
374,423
256,281
133,321
16,315
−82,188
−154,869
−199,64
−223,07
−235,087
−241,354
−244,05
−241,974
−232,506
−215,868
−194,242
−170,421
−146,984
−125,079
−105,382
−88,397
−74,364
−63,662
−56,174
−51,306
−48,803
−48,385
−49,343
−50,992
−52,496
−52,885
−51,86
−49,586
−46,135
−41,74
−36,809
−31,693
−26,956
−23,278
−20,899
−19,777
−19,794
−20,657
−22,078
−23,84
−25,603
−26,995
−27,811
−27,927
−27,313
−26,037
−24,14
−21,646
−18,62
−15,131
−11,25
−7,057
−2,609
2,038
6,818
11,663
16,496
21,249
25,88
30,347
34,632
38,728
42,633
46,355
49,91
53,313
56,588
59,763
62,862
65,914
68,951
72,005
75,114
78,315
81,634
85,097
88,723
92,527
96,524
100,726
105,14
109,775
114,641
119,74
125,084
130,678
136,532
142,655
149,048
155,706
162,62
169,779
177,167
184,766
192,545
200,468
208,501
216,612
224,775
232,968
241,164
249,328
257,423
265,408
273,259
280,959
288,497
295,863
303,06
310,102
317,025
323,879
330,699
337,497
344,269
350,993
357,655
364,244
370,748
377,143
383,384
389,413
395,177
400,616
405,648
410,163
414,015
417,044
419,125
420,16
420,082
418,846
416,403
412,701
407,707
401,409
393,817
384,954
374,838
363,496
350,993
337,438
322,989
307,819
292,074
275,885
259,368
242,628
225,789
208,977
192,306
175,887
159,818
144,191
129,113
114,684
100,969
87,998
75,757
64,223
53,382
43,22
33,725
24,877
16,639
8,965
1,808
−4,892
−11,19
−17,14
−22,807
−28,257
−33,536
−38,672
−43,673
−48,536
−53,262
−57,851
−62,302
−66,606
−70,745
−74,699
−78,44
−81,934
−85,149
−88,063
−90,652
−92,895
−94,782
−96,308
−97,481
−98,318
−98,838
−99,058
−98,998
−98,68
−98,131
−97,38
−96,461
−95,41
−94,258
−93,033
−91,759
−90,46
−89,153
−87,855
−86,578
−85,326
−84,107
−82,927
−81,793
−80,711
−79,687
−78,722
−77,819
−76,979
−76,202
−75,492
−74,849
−74,274
−73,77
−73,337
−72,977
−72,692
−72,484
−72,351
−72,292
−72,304
−72,386
−72,534
−72,744
−73,013
−73,338
−73,714
−74,138
−74,606
−75,116
−75,664
−76,246
−76,858
−77,496
−78,158
−78,84
−79,537
−80,248
−80,967
−81,693
−82,421
−83,148
−83,871
−84,587
−85,292
−85,983
−86,658
−87,313
−87,946
−88,555
−89,137
−89,692
−90,217
−90,711
−91,173
−91,601
−91,995
−92,354
−92,677
−92,963
−93,212
−93,423
−93,596
−93,731
−93,828
−93,888
−93,909
−93,894
−93,842
−93,756
−93,635
−93,482
−93,298
−93,085
−92,845
−92,579
−92,29
−91,98
−91,652
−91,307
−90,948
−90,576
−90,195
−89,806
−89,412
−89,015
−88,617
−88,22
−87,827
−87,439
−87,06
−86,69
−86,332
−85,989
−85,66
−85,349
−85,057
−84,785
−84,534
−84,305
−84,099
−83,917
−83,758
−83,623
−83,512
−83,424
−83,359
−83,316
−83,295
−83,294
−83,313
−83,351
−83,405
−83,477
−83,562
−83,662
−83,773
−83,895
−84,026
−84,164
−84,306
−84,452
−84,6
−84,748
−84,894
−85,037
−85,175
−85,307
−85,431
−85,548
−85,655
−85,752
−85,838
−85,914
−85,98
−86,034
−86,079
−86,113
−86,139
−86,157
−86,167
−86,171
−86,17
−86,166
−86,158
−86,15
−86,142
−86,135
−86,133
−86,136
−86,146
−86,166
−86,197
−86,243
−86,303
−86,382
−86,479
−86,597
−86,737
−86,9
−87,087
−87,299
−87,535
−87,795
−88,078
−88,384
−88,71
−89,056
−89,419
−89,796
−90,184
−90,581
−90,983
−91,385
−91,785
−92,178
−92,56
−92,925
−93,269
−93,587
−93,873
−94,122
−94,327
−94,484
−94,584
−94,623
−94,594
−94,489
−94,304
−94,032
−93,667
−93,206
−92,642
−91,972
−91,193
−90,301
−89,296
−88,175
−86,937
−85,584
−84,115
−82,533
−80,841
−79,044
−77,146
−75,153
−73,074
−70,917
−68,692
−66,408
−64,078
−61,714
−59,332
−56,946
−54,571
−52,222
−49,918
−47,674
−45,509
−43,437
−41,473
−39,634
−37,934
−36,388
−35,01
−33,811
−32,796
−31,97
−31,338
−30,9
−30,664
−30,631
−30,798
−31,166
−31,734
−32,502
−33,467
−34,619
−35,933
−37,385
−38,944
−40,585
−42,29
−44,045
−45,838
−47,65
−49,444
−51,191
−52,864
−54,426
−55,851
−57,097
−58,104
−58,893
−59,566
−60,266
−61,193
−62,506
−64,257
−66,563
−69,595
−73,338
−77,643
−82,206
−86,527
−90,277
−93,365
−95,553
−96,455
−95,929
−94,015
−91,042
−87,675
−84,353
−81,253
−78,785
−77,763
−78,956
−82,884
−89,812
−99,137
−109,453
−119,356
−127,129
−132,109
−135,7
−139,021
−141,703
−138,725
−120,936
−80,22
−11,131
84,227
198,487
325,522
457,322
585,9
701,867
789,34
835,448
835,852
793,507
721,778
634,458
536,551
430,695
316,744
197,299
84,506
−11,456
−84,5
−134,046
−168,519
−194,18
−213,358
−225,952
−227,99
−218,404
−199,534
−174,393
−147,113
−120,519
−95,856
−74,457
−57,376
−45,245
−38,239
−35,84
−37,096
−40,986
−46,474
−52,334
−57,279
−60,196
−60,511
−58,237
−53,73
−47,537
−40,289
−32,682
−25,502
−19,506
−15,1
−12,348
−11,113
−11,094
−11,973
−13,44
−15,134
−16,701
−17,916
−18,647
−18,844
−18,519
−17,662
−16,268
−14,361
−11,972
−9,136
−5,887
−2,259
1,706
5,943
10,389
14,984
19,671
24,402
29,114
33,759
38,302
42,71
46,97
51,074
55,012
58,787
62,414
65,911
69,304
72,621
75,887
79,127
82,37
85,645
88,988
92,429
95,994
99,703
103,575
107,626
111,875
116,335
121,014
125,921
131,06
136,439
142,068
147,957
154,116
160,549
167,25
174,213
181,428
188,878
196,544
204,397
212,401
220,517
228,716
236,971
245,259
253,554
261,821
270,022
278,117
286,08
293,896
301,552
309,038
316,357
323,523
330,571
337,55
344,497
351,423
358,324
365,178
371,964
378,667
385,27
391,743
398,035
404,084
409,828
415,201
420,12
424,475
428,118
430,89
432,659
433,334
432,851
431,163
428,233
424,024
418,512
411,7
403,608
394,257
383,675
371,896
358,974
345,016
330,176
314,619
298,49
281,908
264,972
247,79
230,465
213,099
195,791
178,625
161,688
145,096
128,959
113,38
98,455
84,225
70,692
57,862
45,735
34,321
23,632
13,662
4,395
−4,175
−12,068
−19,306
−25,929
−32,02
−37,66
−42,917
−47,866
−52,549
−56,986
−61,209
−65,236
−69,079
−72,753
−76,262
−79,602
−82,784
−85,812
−88,678
−91,365
−93,83
−96,036
−97,962
−99,583
−100,892
−101,89
−102,576
−102,961
−103,07
−102,923
−102,545
−101,963
−101,194
−100,263
−99,197
−98,027
−96,792
−95,527
−94,256
−93,004
−91,791
−90,633
−89,543
−88,53
−87,593
−86,733
−85,952
−85,251
−84,632
−84,096
−83,641
−83,263
−82,96
−82,727
−82,561
−82,46
−82,42
−82,438
−82,508
−82,63
−82,8
−83,015
−83,271
−83,564
−83,887
−84,236
−84,607
−84,993
−85,39
−85,794
−86,198
−86,601
−86,999
−87,388
−87,765
−88,129
−88,477
−88,807
−89,12
−89,414
−89,689
−89,944
−90,181
−90,398
−90,596
−90,777
−90,94
−91,087
−91,219
−91,337
−91,442
−91,537
−91,624
−91,704
−91,779
−91,851
−91,922
−91,994
−92,068
−92,146
−92,23
−92,321
−92,42
−92,528
−92,647
−92,777
−92,919
−93,073
−93,239
−93,417
−93,607
−93,808
−94,021
−94,244
−94,477
−94,719
−94,969
−95,227
−95,491
−95,76
−96,033
−96,309
−96,584
−96,859
−97,13
−97,397
−97,657
−97,909
−98,152
−98,383
−98,603
−98,809
−99,001
−99,177
−99,336
−99,479
−99,603
−99,709
−99,797
−99,867
−99,919
−99,953
−99,97
−99,97
−99,956
−99,926
−99,883
−99,827
−99,759
−99,682
−99,596
−99,503
−99,406
−99,306
−99,205
−99,107
−99,012
−98,923
−98,842
−98,771
−98,713
−98,668
−98,639
−98,627
−98,633
−98,659
−98,706
−98,775
−98,865
−98,978
−99,112
−99,268
−99,445
−99,641
−99,855
−100,087
−100,334
−100,596
−100,87
−101,154
−101,446
−101,744
−102,046
−102,348
−102,649
−102,944
−103,232
−103,509
−103,773
−104,022
−104,253
−104,463
−104,651
−104,815
−104,953
−105,064
−105,147
−105,2
−105,224
−105,217
−105,182
−105,117
−105,025
−104,907
−104,764
−104,599
−104,413
−104,21
−103,991
−103,759
−103,517
−103,269
−103,016
−102,764
−102,514
−102,27
−102,037
−101,817
−101,614
−101,431
−101,27
−101,134
−101,024
−100,943
−100,892
−100,87
−100,88
−100,919
−100,989
−101,087
−101,212
−101,363
−101,536
−101,728
−101,937
−102,157
−102,384
−102,614
−102,841
−103,06
−103,266
−103,453
−103,615
−103,747
−103,841
−103,893
−103,894
−103,838
−103,717
−103,524
−103,251
−102,893
−102,444
−101,898
−101,252
−100,502
−99,648
−98,689
−97,622
−96,448
−95,165
−93,774
−92,276
−90,671
−88,961
−87,151
−85,241
−83,239
−81,152
−78,989
−76,757
−74,464
−72,114
−69,717
−67,288
−64,846
−62,41
−60,001
−57,643
−55,364
−53,196
−51,171
−49,314
−47,648
−46,187
−44,944
−43,933
−43,169
−42,666
−42,422
−42,419
−42,637
−43,045
−43,618
−44,327
−45,13
−45,974
−46,817
−47,621
−48,361
−49,017
−49,559
−49,958
−50,184
−50,21
−50,044
−49,716
−49,272
−48,764
−48,227
−47,685
−47,174
−46,736
−46,41
−46,223
−46,175
−46,318
−46,779
−47,723
−49,376
−51,939
−55,502
−60,107
−65,761
−72,268
−79,325
−86,598
−93,582
−99,843
−105,093
−109,073
−111,66
−113,064
−113,619
−113,615
−113,486
−113,55
−114,155
−115,777
−118,642
−122,746
−127,961
−134,166
−141,38
−149,015
−155,287
−158,286
−156,2
−148,807
−138,15
−125,17
−108,962
−85,475
−47,838
9,733
90,49
193,227
313,299
443,518
573,643
692,075
785,413
841,032
852,308
820,861
755,017
667,299
567,714
458,351
340,196
214,837
88,267
−24,703
−112,972
−171,833
−203,498
−219,367
−227,851
−232,125
−232,107
−223,849
−206,507
−182,667
−155,662
−129,418
−105,957
−85,911
−69,795
−57,661
−49,503
−45,011
−43,297
−43,565
−45,235
−47,54
−49,803
−51,382
−51,57
−50,212
−47,63
−44,155
−40,153
−36,049
−32,148
−28,835
−26,613
−25,623
−25,709
−26,632
−28,038
−29,619
−31,195
−32,538
−33,355
−33,479
−32,817
−31,345
−29,139
−26,264
−22,754
−18,668
−14,089
−9,11
−3,85
1,563
7,039
12,499
17,883
23,153
28,266
33,186
37,888
42,366
46,624
50,671
54,514
58,158
61,617
64,918
68,106
71,23
74,333
77,449
80,603
83,818
87,12
90,532
94,07
97,745
101,565
105,544
109,696
114,042
118,597
123,371
128,371
133,602
139,074
144,8
150,79
157,053
163,588
170,391
177,46
184,786
192,358
200,153
208,139
216,283
224,558
232,939
241,408
249,934
258,486
267,023
275,508
283,916
292,229
300,433
308,513
316,465
324,296
332,031
339,706
347,341
354,935
362,472
369,925
377,274
384,501
391,582
398,483
405,147
411,51
417,513
423,088
428,151
432,6
436,302
439,124
440,974
441,782
441,505
440,114
437,575
433,868
428,991
422,96
415,815
407,599
398,342
388,094
376,924
364,918
352,202
338,893
325,065
310,789
296,127
281,135
265,886
250,438
234,833
219,119
203,336
187,538
171,803
156,2
140,791
125,646
110,807
96,325
82,289
68,762
55,805
43,478
31,815
20,857
10,651
1,221
−7,424
−15,283
−22,389
−28,776
−34,49
−39,607
−44,186
−48,292
−52,009
−55,397
−58,507
−61,395
−64,094
−66,639
−69,067
−71,399
−73,643
−75,816
−77,912
−79,919
−81,821
−83,576
−85,15
−86,523
−87,667
−88,572
−89,235
−89,652
−89,832
−89,792
−89,547
−89,115
−88,519
−87,775
−86,903
−85,93
−84,884
−83,801
−82,711
−81,636
−80,598
−79,611
−78,685
−77,832
−77,054
−76,349
−75,715
−75,152
−74,657
−74,232
−73,876
−73,587
−73,36
−73,191
−73,077
−73,014
−73,001
−73,034
−73,109
−73,225
−73,38
−73,572
−73,801
−74,063
−74,355
−74,673
−75,014
−75,373
−75,747
−76,131
−76,523
−76,918
−77,314
−77,71
−78,102
−78,489
−78,87
−79,244
−79,608
−79,964
−80,309
−80,643
−80,967
−81,279
−81,579
−81,868
−82,145
−82,409
−82,661
−82,901
−83,126
−83,339
−83,538
−83,724
−83,896
−84,055
−84,201
−84,335
−84,457
−84,568
−84,67
−84,762
−84,846
−84,923
−84,993
−85,059
−85,121
−85,18
−85,237
−85,293
−85,35
−85,407
−85,465
−85,526
−85,589
−85,657
−85,728
−85,803
−85,883
−85,969
−86,062
−86,161
−86,267
−86,381
−86,503
−86,635
−86,775
−86,925
−87,085
−87,254
−87,433
−87,621
−87,818
−88,024
−88,237
−88,458
−88,685
−88,916
−89,151
−89,389
−89,627
−89,864
−90,099
−90,33
−90,556
−90,776
−90,988
−91,192
−91,387
−91,572
−91,746
−91,908
−92,058
−92,196
−92,321
−92,432
−92,531
−92,617
−92,69
−92,751
−92,799
−92,836
−92,861
−92,875
−92,88
−92,876
−92,863
−92,844
−92,82
−92,792
−92,762
−92,732
−92,703
−92,678
−92,658
−92,645
−92,641
−92,647
−92,664
−92,694
−92,738
−92,796
−92,87
−92,958
−93,063
−93,183
−93,319
−93,469
−93,633
−93,81
−93,998
−94,198
−94,407
−94,624
−94,848
−95,078
−95,313
−95,55
−95,789
−96,028
−96,266
−96,502
−96,733
−96,959
−97,177
−97,388
−97,589
−97,779
−97,957
−98,123
−98,275
−98,413
−98,537
−98,646
−98,739
−98,818
−98,882
−98,933
−98,972
−98,999
−99,017
−99,028
−99,033
−99,036
−99,038
−99,041
−99,047
−99,057
−99,073
−99,097
−99,128
−99,169
−99,219
−99,279
−99,348
−99,428
−99,516
−99,613
−99,718
−99,828
−99,943
−100,061
−100,179
−100,297
−100,41
−100,517
−100,615
−100,701
−100,772
−100,823
−100,851
−100,849
−100,813
−100,736
−100,611
−100,433
−100,193
−99,887
−99,51
−99,055
−98,519
−97,9
−97,194
−96,4
−95,514
−94,535
−93,459
−92,286
−91,013
−89,638
−88,163
−86,585
−84,906
−83,13
−81,262
−79,306
−77,266
−75,143
−72,944
−70,678
−68,358
−65,999
−63,619
−61,235
−58,871
−56,561
−54,336
−52,226
−50,256
−48,441
−46,795
−45,333
−44,067
−43,012
−42,168
−41,521
−41,05
−40,742
−40,581
−40,55
−40,622
−40,741
−40,861
−40,949
−40,973
−40,925
−40,791
−40,547
−40,177
−39,678
−39,065
−38,382
−37,676
−36,966
−36,269
−35,6
−34,99
−34,517
−34,243
−34,199
−34,399
−34,836
−35,532
−36,558
−37,994
−39,869
−42,144
−44,786
−47,834
−51,442
−55,789
−60,945
−66,796
−73,178
−80,105
−87,573
−95,405
−103,131
−110,008
−115,441
−119,275
−121,53
−121,978
−120,391
−116,795
−111,775
−106,527
−102,061
−98,935
−97,478
−98,195
−101,825
−107,679
−113,131
−115,424
−111,737
−102,607
−92,258
−80,786
−65,631
−39,714
9,377
86,006
188,617
311,252
440,218
565,588
678,376
766,891
822,737
837,639
809,412
745,716
657,859
558,505
454,08
344,353
228,933
109,9
−2,99
−96,994
−164,18
−203,118
−220,786
−226,332
−225,099
−218,677
−205,561
−185,141
−159,436
−131,883
−105,998
−83,648
−65,561
−51,986
−42,475
−36,582
−33,661
−32,442
−32,124
−32,339
−32,557
−32,47
−31,969
−30,829
−29,187
−27,8
−27,125
−27,28
−28,328
−29,975
−31,912
−34,104
−36,268
−37,656
−37,781
−36,446
−33,701
−30,078
−26,004
−21,588
−17,073
−12,893
−9,3
−6,408
−4,092
−1,863
0,592
3,339
6,46
10,03
14,068
18,586
23,463
28,419
33,283
37,99
42,499
46,822
50,949
54,849
58,535
62,054
65,444
68,734
71,948
75,089
78,178
81,246
84,32
87,429
90,592
93,823
97,131
100,531
104,038
107,667
111,436
115,36
119,452
123,729
128,204
132,89
137,797
142,931
148,302
153,917
159,789
165,925
172,327
178,995
185,923
193,099
200,508
208,125
215,917
223,853
231,9
240,032
248,231
256,472
264,724
272,955
281,123
289,195
297,155
304,984
312,669
320,206
327,597
334,864
342,05
349,182
356,273
363,319
370,288
377,153
383,892
390,478
396,891
403,095
409,032
414,647
419,888
424,687
428,969
432,623
435,499
437,472
438,448
438,359
437,177
434,88
431,441
426,845
421,083
414,162
406,11
396,947
386,68
375,333
362,938
349,583
335,412
320,557
305,129
289,223
272,907
256,251
239,345
222,273
205,114
187,945
170,844
153,911
137,276
121,08
105,451
90,47
76,162
62,549
49,661
37,529
26,191
15,668
5,958
−2,948
−11,053
−18,365
−24,911
−30,747
−35,969
−40,695
−45,039
−49,079
−52,864
−56,433
−59,824
−63,078
−66,226
−69,283
−72,252
−75,136
−77,943
−80,687
−83,365
−85,957
−88,421
−90,696
−92,734
−94,507
−95,999
−97,204
−98,121
−98,75
−99,104
−99,208
−99,09
−98,775
−98,284
−97,63
−96,834
−95,926
−94,938
−93,912
−92,879
−91,863
−90,883
−89,956
−89,095
−88,309
−87,601
−86,968
−86,407
−85,917
−85,499
−85,153
−84,882
−84,681
−84,547
−84,477
−84,467
−84,515
−84,617
−84,769
−84,969
−85,213
−85,498
−85,824
−86,187
−86,585
−87,014
−87,469
−87,946
−88,442
−88,952
−89,473
−90
−90,53
−91,061
−91,59
−92,115
−92,635
−93,147
−93,651
−94,145
−94,628
−95,1
−95,56
−96,008
−96,442
−96,862
−97,269
−97,661
−98,038
−98,401
−98,75
−99,084
−99,404
−99,71
−100,001
−100,279
−100,544
−100,796
−101,035
−101,262
−101,477
−101,681
−101,873
−102,055
−102,227
−102,387
−102,536
−102,675
−102,803
−102,919
−103,023
−103,116
−103,197
−103,266
−103,323
−103,368
−103,401
−103,422
−103,431
−103,429
−103,415
−103,391
−103,357
−103,313
−103,261
−103,202
−103,135
−103,063
−102,986
−102,904
−102,82
−102,733
−102,645
−102,558
−102,471
−102,386
−102,305
−102,227
−102,155
−102,088
−102,028
−101,976
−101,932
−101,897
−101,872
−101,858
−101,854
−101,862
−101,882
−101,914
−101,958
−102,015
−102,084
−102,165
−102,257
−102,36
−102,472
−102,594
−102,725
−102,862
−103,006
−103,155
−103,308
−103,464
−103,621
−103,779
−103,935
−104,088
−104,237
−104,382
−104,519
−104,65
−104,772
−104,884
−104,986
−105,077
−105,155
−105,219
−105,268
−105,302
−105,319
−105,319
−105,301
−105,264
−105,209
−105,135
−105,042
−104,93
−104,8
−104,651
−104,485
−104,303
−104,105
−103,892
−103,665
−103,426
−103,177
−102,918
−102,653
−102,381
−102,106
−101,829
−101,552
−101,277
−101,004
−100,737
−100,478
−100,227
−99,987
−99,76
−99,549
−99,354
−99,179
−99,025
−98,893
−98,786
−98,704
−98,65
−98,622
−98,624
−98,653
−98,712
−98,798
−98,912
−99,053
−99,219
−99,409
−99,619
−99,849
−100,094
−100,352
−100,618
−100,89
−101,161
−101,429
−101,687
−101,931
−102,156
−102,356
−102,526
−102,66
−102,751
−102,793
−102,781
−102,707
−102,564
−102,347
−102,049
−101,663
−101,184
−100,607
−99,926
−99,138
−98,239
−97,225
−96,094
−94,843
−93,471
−91,978
−90,364
−88,63
−86,78
−84,817
−82,746
−80,575
−78,312
−75,966
−73,548
−71,067
−68,538
−65,972
−63,387
−60,797
−58,219
−55,667
−53,161
−50,718
−48,356
−46,092
−43,941
−41,919
−40,041
−38,322
−36,778
−35,42
−34,257
−33,293
−32,533
−31,981
−31,646
−31,531
−31,637
−31,964
−32,513
−33,282
−34,268
−35,46
−36,835
−38,365
−40,016
−41,76
−43,579
−45,457
−47,381
−49,332
−51,274
−53,176
−55,006
−56,725
−58,304
−59,702
−60,863
−61,817
−62,668
−63,559
−64,713
−66,292
−68,393
−71,171
−74,744
−79,034
−83,854
−88,849
−93,502
−97,5
−100,6
−102,412
−102,709
−101,536
−99,112
−95,977
−92,779
−89,872
−87,753
−87,182
−88,619
−92,42
−98,677
−107,024
−117,4
−128,941
−139,202
−145,947
−147,054
−142,872
−137,011
−130,026
−119,116
−97,014
−52,762
18,017
113,22
225,563
344,207
462,541
575,316
675,97
755,417
801,554
806,949
772,254
706,928
625,145
536,268
442,423
340,456
227,433
107,916
−5,827
−100,138
−166,244
−204,472
−223,475
−232,607
−237,36
−238,363
−232,305
−217,511
−195,243
−168,372
−140,836
−115,115
−92,326
−73,453
−59,021
−49,136
−43,561
−41,538
−42,109
−44,41
−47,47
−50,129
−51,272
−50,273
−47,073
−41,99
−35,561
−28,333
−20,872
−13,89
−8,145
−4,07
−1,768
−1,109
−1,773
−3,428
−5,772
−8,437
−11,03
−13,269
−14,961
−15,993
−16,356
−16,049
−15,075
−13,467
−11,271
−8,524
−5,275
−1,586
2,484
6,866
11,488
16,286
21,195
26,142
31,045
35,832
40,459
44,897
49,139
53,176
57,001
60,619
64,052
67,331
70,489
73,556
76,554
79,51
82,456
85,431
88,478
91,632
94,918
98,36
101,974
105,782
109,802
114,047
118,523
123,232
128,183
133,385
138,851
144,595
150,618
156,918
163,488
170,321
177,405
184,724
192,255
199,963
207,819
215,797
223,875
232,032
240,239
248,462
256,664
264,814
272,884
280,859
288,725
296,469
304,094
311,613
319,047
326,431
333,782
341,095
348,363
355,565
362,684
369,706
376,603
383,335
389,851
396,087
401,971
407,428
412,355
416,627
420,119
422,696
424,255
424,73
424,061
422,207
419,138
414,83
409,284
402,531
394,607
385,562
375,466
364,399
352,477
339,852
326,667
313,071
299,19
285,119
270,952
256,775
242,66
228,671
214,856
201,246
187,873
174,77
161,954
149,434
137,198
125,205
113,429
101,849
90,453
79,245
68,231
57,416
46,818
36,459
26,367
16,57
7,091
−2,058
−10,855
−19,279
−27,303
−34,895
−42,029
−48,692
−54,875
−60,573
−65,789
−70,524
−74,791
−78,608
−81,993
−84,965
−87,542
−89,74
−91,577
−93,074
−94,255
−95,142
−95,759
−96,127
−96,267
−96,2
−95,948
−95,532
−94,968
−94,275
−93,47
−92,571
−91,595
−90,56
−89,481
−88,374
−87,253
−86,132
−85,023
−83,938
−82,885
−81,874
−80,912
−80,006
−79,162
−78,385
−77,679
−77,047
−76,49
−76,012
−75,611
−75,289
−75,044
−74,875
−74,781
−74,759
−74,808
−74,924
−75,105
−75,346
−75,645
−75,996
−76,397
−76,842
−77,329
−77,852
−78,407
−78,991
−79,601
−80,232
−80,881
−81,546
−82,223
−82,909
−83,602
−84,299
−84,998
−85,696
−86,392
−87,084
−87,771
−88,45
−89,121
−89,783
−90,435
−91,075
−91,705
−92,321
−92,926
−93,516
−94,094
−94,658
−95,209
−95,746
−96,27
−96,78
−97,278
−97,762
−98,232
−98,689
−99,131
−99,558
−99,971
−100,367
−100,747
−101,111
−101,457
−101,786
−102,098
−102,391
−102,666
−102,923
−103,161
−103,38
−103,58
−103,76
−103,922
−104,064
−104,187
−104,291
−104,376
−104,442
−104,489
−104,517
−104,526
−104,517
−104,488
−104,441
−104,376
−104,293
−104,193
−104,076
−103,944
−103,798
−103,639
−103,467
−103,286
−103,094
−102,895
−102,688
−102,476
−102,26
−102,041
−101,82
−101,599
−101,378
−101,159
−100,944
−100,732
−100,525
−100,323
−100,127
−99,939
−99,759
−99,588
−99,428
−99,279
−99,143
−99,021
−98,914
−98,823
−98,748
−98,691
−98,651
−98,63
−98,628
−98,644
−98,679
−98,734
−98,807
−98,899
−99,01
−99,139
−99,286
−99,449
−99,629
−99,825
−100,036
−100,262
−100,502
−100,757
−101,026
−101,309
−101,606
−101,916
−102,239
−102,573
−102,917
−103,27
−103,63
−103,994
−104,361
−104,728
−105,094
−105,456
−105,811
−106,158
−106,494
−106,816
−107,122
−107,409
−107,674
−107,914
−108,127
−108,311
−108,461
−108,578
−108,657
−108,696
−108,692
−108,641
−108,54
−108,384
−108,169
−107,889
−107,541
−107,119
−106,622
−106,045
−105,387
−104,646
−103,822
−102,915
−101,926
−100,854
−99,7
−98,462
−97,142
−95,739
−94,256
−92,692
−91,05
−89,331
−87,541
−85,688
−83,776
−81,812
−79,796
−77,735
−75,641
−73,528
−71,409
−69,302
−67,224
−65,196
−63,249
−61,41
−59,707
−58,164
−56,792
−55,601
−54,603
−53,809
−53,229
−52,861
−52,687
−52,683
−52,833
−53,121
−53,531
−54,036
−54,587
−55,143
−55,67
−56,133
−56,515
−56,791
−56,931
−56,913
−56,728
−56,385
−55,919
−55,372
−54,762
−54,102
−53,407
−52,7
−52,033
−51,445
−50,972
−50,665
−50,58
−50,801
−51,418
−52,489
−54,057
−56,162
−58,818
−62,039
−65,851
−70,256
−75,291
−81,057
−87,58
−94,815
−102,615
−110,634
−118,479
−125,785
−132,066
−136,705
−139,248
−139,518
−137,671
−134,314
−130,303
−126,42
−123,583
−123,097
−125,07
−128,096
−130,83
−131,197
−129,2
−127,825
−126,633
−122,123
−107,007
−70,315
−7,322
80,195
186,017
300,64
417,73
531,691
634,86
716,552
764,083
770,35
736,789
673,786
595,638
512,086
425,436
331,585
227,17
114,333
2,479
−93,657
−164,352
−207,102
−226,217
−232,427
−232,987
−230,245
−224,316
−212,562
−194,531
−172,43
−148,636
−125,559
−104,679
−86,829
−72,533
−61,985
−55,13
−51,462
−50,352
−51,423
−54,064
−57,278
−60,056
−61,377
−60,673
−58,02
−53,676
−47,933
−41,248
−34,187
−27,405
−21,625
−17,232
−14,227
−12,489
−11,78
−11,838
−12,44
−13,308
−14,13
−14,731
−15,037
−15,003
−14,618
−13,845
−12,635
−10,987
−8,925
−6,475
−3,665
−0,524
2,915
6,595
10,47
14,504
18,677
22,977
27,386
31,87
36,38
40,862
45,273
49,587
53,786
57,861
61,815
65,657
69,41
73,107
76,775
80,435
84,102
87,787
91,507
95,285
99,149
103,131
107,26
111,558
116,049
120,75
125,676
130,837
136,237
141,876
147,758
153,89
160,279
166,925
173,822
180,961
188,327
195,9
203,655
211,557
219,571
227,664
235,81
243,985
252,167
260,326
268,428
276,431
284,3
292,012
299,553
306,907
314,07
321,048
327,862
334,559
341,176
347,73
354,222
360,634
366,949
373,157
379,25
385,215
391,034
396,671
402,087
407,238
412,059
416,457
420,306
423,449
425,736
427,057
427,337
426,515
424,539
421,352
416,912
411,186
404,149
395,781
386,055
374,966
362,544
348,871
334,083
318,351
301,85
284,728
267,11
249,121
230,892
212,552
194,222
176,024
158,085
140,557
123,624
107,441
92,122
77,733
64,288
51,778
40,183
29,487
19,672
10,712
2,569
−4,791
−11,4
−17,302
−22,561
−27,278
−31,6
−35,645
−39,5
−43,227
−46,857
−50,411
−53,91
−57,36
−60,754
−64,086
−67,345
−70,527
−73,64
−76,675
−79,611
−82,401
−84,976
−87,284
−89,296
−90,993
−92,369
−93,424
−94,16
−94,592
−94,752
−94,668
−94,364
−93,86
−93,17
−92,314
−91,319
−90,221
−89,06
−87,868
−86,668
−85,482
−84,327
−83,216
−82,16
−81,164
−80,224
−79,338
−78,508
−77,735
−77,024
−76,377
−75,792
−75,268
−74,803
−74,397
−74,049
−73,758
−73,521
−73,339
−73,211
−73,136
−73,118
−73,154
−73,244
−73,387
−73,579
−73,818
−74,101
−74,426
−74,788
−75,184
−75,611
−76,067
−76,548
−77,053
−77,577
−78,119
−78,677
−79,248
−79,83
−80,421
−81,019
−81,623
−82,229
−82,838
−83,446
−84,051
−84,652
−85,247
−85,834
−86,412
−86,978
−87,531
−88,069
−88,591
−89,096
−89,583
−90,05
−90,496
−90,922
−91,325
−91,707
−92,067
−92,405
−92,721
−93,014
−93,284
−93,533
−93,76
−93,964
−94,147
−94,309
−94,449
−94,57
−94,67
−94,752
−94,815
−94,861
−94,89
−94,905
−94,905
−94,891
−94,867
−94,832
−94,788
−94,737
−94,681
−94,62
−94,556
−94,491
−94,425
−94,361
−94,299
−94,241
−94,186
−94,137
−94,093
−94,056
−94,026
−94,003
−93,989
−93,983
−93,987
−93,999
−94,02
−94,05
−94,09
−94,137
−94,193
−94,257
−94,328
−94,405
−94,489
−94,576
−94,668
−94,762
−94,858
−94,954
−95,049
−95,141
−95,23
−95,313
−95,391
−95,461
−95,524
−95,579
−95,624
−95,66
−95,686
−95,702
−95,708
−95,704
−95,69
−95,667
−95,635
−95,593
−95,544
−95,488
−95,426
−95,359
−95,287
−95,214
−95,139
−95,064
−94,991
−94,921
−94,856
−94,798
−94,749
−94,711
−94,685
−94,675
−94,683
−94,71
−94,758
−94,828
−94,921
−95,038
−95,178
−95,343
−95,53
−95,74
−95,97
−96,22
−96,488
−96,773
−97,072
−97,381
−97,698
−98,021
−98,344
−98,663
−98,976
−99,276
−99,56
−99,824
−100,062
−100,27
−100,443
−100,576
−100,662
−100,695
−100,668
−100,575
−100,407
−100,159
−99,823
−99,395
−98,87
−98,244
−97,514
−96,68
−95,741
−94,696
−93,545
−92,286
−90,92
−89,447
−87,868
−86,184
−84,398
−82,511
−80,53
−78,463
−76,321
−74,112
−71,844
−69,521
−67,154
−64,757
−62,343
−59,93
−57,537
−55,183
−52,898
−50,717
−48,673
−46,8
−45,122
−43,647
−42,388
−41,356
−40,556
−39,994
−39,667
−39,555
−39,645
−39,932
−40,4
−41,033
−41,795
−42,631
−43,49
−44,327
−45,103
−45,797
−46,384
−46,84
−47,16
−47,348
−47,421
−47,417
−47,347
−47,209
−47,012
−46,777
−46,546
−46,382
−46,328
−46,415
−46,692
−47,229
−48,116
−49,409
−51,111
−53,238
−55,859
−59,114
−63,174
−68,111
−73,853
−80,324
−87,526
−95,383
−103,616
−111,604
−118,562
−123,93
−127,479
−129,135
−128,743
−126,161
−121,658
−116,257
−111,318
−107,906
−106,705
−107,94
−111,783
−118,63
−127,368
−134,867
−138,033
−133,582
−120,914
−103,069
−80,134
−50,618
−10,176
50,026
132,734
236,789
358,199
485,325
608,185
715,802
793,834
834,119
832,085
789,212
716,188
622,576
514,477
396,865
271,854
145,578
30,825
−62,389
−128,194
−167,884
−191,558
−206,958
−217,677
−223,61
−220,347
−206,846
−185,49
−159,562
−133,507
−109,582
−88,343
−70,678
−56,98
−47,351
−41,692
−39,161
−38,748
−39,936
−42,157
−44,542
−46,258
−46,498
−44,889
−41,698
−37,367
−32,238
−26,711
−21,263
−16,419
−12,786
−10,659
−9,962
−10,492
−11,953
−14,029
−16,436
−18,843
−20,89
−22,36
−23,15
−23,209
−22,559
−21,226
−19,217
−16,582
−13,388
−9,695
−5,564
−1,063
3,741
8,76
13,895
19,053
24,161
29,165
34,025
38,702
43,175
47,43
51,469
55,304
58,945
62,404
65,7
68,855
71,902
74,878
77,82
80,771
83,766
86,835
90,005
93,299
96,736
100,333
104,102
108,053
112,199
116,552
121,124
125,927
130,973
136,274
141,844
147,69
153,815
160,216
166,888
173,821
181,003
188,412
196,019
203,796
211,716
219,756
227,9
236,123
244,396
252,684
260,945
269,146
277,271
285,302
293,227
301,044
308,756
316,388
323,987
331,582
339,187
346,798
354,385
361,923
369,39
376,76
384,014
391,112
397,99
404,588
410,848
416,691
422,03
426,74
430,652
433,633
435,576
436,403
436,08
434,569
431,832
427,848
422,603
416,102
408,375
399,441
389,311
378,024
365,63
352,239
338,019
323,113
307,644
291,717
275,409
258,806
242,012
225,113
208,188
191,32
174,581
158,079
141,947
126,295
111,225
96,791
82,99
69,832
57,337
45,522
34,413
24,02
14,328
5,333
−2,961
−10,57
−17,521
−23,875
−29,735
−35,187
−40,313
−45,169
−49,776
−54,162
−58,359
−62,387
−66,263
−69,995
−73,577
−77,016
−80,327
−83,511
−86,559
−89,446
−92,116
−94,53
−96,66
−98,484
−100
−101,206
−102,101
−102,699
−103,02
−103,089
−102,932
−102,571
−102,02
−101,299
−100,435
−99,456
−98,404
−97,31
−96,199
−95,093
−94,009
−92,964
−91,97
−91,032
−90,152
−89,329
−88,564
−87,86
−87,22
−86,646
−86,139
−85,697
−85,319
−85,002
−84,748
−84,554
−84,419
−84,342
−84,321
−84,355
−84,445
−84,589
−84,785
−85,031
−85,324
−85,66
−86,035
−86,447
−86,891
−87,363
−87,859
−88,377
−88,912
−89,462
−90,024
−90,595
−91,173
−91,756
−92,34
−92,925
−93,508
−94,088
−94,662
−95,229
−95,789
−96,339
−96,878
−97,406
−97,921
−98,423
−98,912
−99,386
−99,846
−100,291
−100,721
−101,137
−101,538
−101,925
−102,297
−102,657
−103,004
−103,34
−103,664
−103,979
−104,285
−104,583
−104,875
−105,16
−105,441
−105,718
−105,993
−106,267
−106,541
−106,815
−107,093
−107,372
−107,656
−107,944
−108,236
−108,534
−108,837
−109,145
−109,459
−109,778
−110,102
−110,431
−110,765
−111,104
−111,447
−111,793
−112,143
−112,494
−112,848
−113,202
−113,555
−113,908
−114,259
−114,606
−114,948
−115,285
−115,614
−115,934
−116,243
−116,541
−116,826
−117,095
−117,349
−117,586
−117,806
−118,007
−118,189
−118,353
−118,498
−118,624
−118,732
−118,821
−118,893
−118,949
−118,988
−119,011
−119,021
−119,016
−119
−118,972
−118,934
−118,886
−118,831
−118,769
−118,701
−118,63
−118,555
−118,479
−118,404
−118,331
−118,262
−118,199
−118,143
−118,096
−118,059
−118,034
−118,023
−118,025
−118,042
−118,074
−118,122
−118,186
−118,267
−118,365
−118,479
−118,61
−118,757
−118,92
−119,099
−119,294
−119,504
−119,729
−119,97
−120,225
−120,495
−120,78
−121,079
−121,392
−121,72
−122,061
−122,415
−122,782
−123,16
−123,55
−123,95
−124,359
−124,777
−125,202
−125,633
−126,069
−126,51
−126,953
−127,398
−127,843
−128,287
−128,728
−129,164
−129,593
−130,014
−130,423
−130,82
−131,2
−131,562
−131,901
−132,214
−132,497
−132,747
−132,958
−133,127
−133,248
−133,317
−133,33
−133,281
−133,165
−132,979
−132,717
−132,375
−131,948
−131,432
−130,824
−130,119
−129,314
−128,407
−127,395
−126,277
−125,052
−123,717
−122,274
−120,722
−119,062
−117,296
−115,428
−113,459
−111,396
