Nimi,Mikko Happonen
Syntymäaika,"20.5.2002"
Tallennuspäivä,2025-04-01 13:26:32 +0200
Luokitus,Sinusrytmi
Oireet,
Ohjelmistoversio,1.90
Laite,"Watch7,8"
Näytetaajuus,512 hertsiä


Kytkentä,I-kytkentä
Yksikkö,µV

−117,446
−137,096
−156,427
−174,507
−190,398
−203,105
−211,874
−216,339
−216,465
−212,558
−205,377
−195,993
−185,424
−174,669
−164,528
−155,459
−147,726
−141,387
−136,143
−131,445
−126,84
−121,922
−116,424
−110,291
−103,487
−96,022
−88,03
−79,719
−71,227
−62,641
−53,975
−45,158
−36,132
−26,853
−17,283
−7,408
2,762
13,183
23,8
34,542
45,334
56,112
66,832
77,465
88,004
98,441
108,752
118,902
128,843
138,529
147,94
157,06
165,878
174,403
182,64
190,6
198,322
205,821
213,078
220,053
226,667
232,822
238,456
243,521
247,982
251,816
254,983
257,445
259,175
260,131
260,271
259,548
257,879
255,209
251,539
246,898
241,369
235,067
228,077
220,475
212,338
203,723
194,704
185,351
175,716
165,863
155,868
145,817
135,833
126,023
116,451
107,158
98,152
89,41
80,932
72,725
64,786
57,129
49,767
42,715
36,006
29,672
23,727
18,177
13,007
8,199
3,754
−0,319
−4,001
−7,264
−10,094
−12,477
−14,4
−15,86
−16,859
−17,409
−17,532
−17,258
−16,611
−15,615
−14,289
−12,654
−10,733
−8,557
−6,155
−3,56
−0,805
2,076
5,048
8,075
11,124
14,165
17,172
20,122
22,987
25,742
28,364
30,829
33,116
35,209
37,085
38,723
40,115
41,255
42,138
42,765
43,121
43,19
42,978
42,497
41,721
40,63
39,212
37,447
35,361
33,005
30,364
27,409
24,259
21,057
17,742
14,337
10,883
7,123
3,817
1,707
−0,222
−2,265
−6,302
−14,589
−24,594
−34,62
−42,154
−43,747
−42,415
−40,712
−40,384
−44,327
−50,443
−56,607
−62,336
−66,334
−69,334
−72,284
−74,981
−77,529
−79,852
−81,751
−83,356
−84,775
−85,986
−86,994
−87,837
−88,549
−89,155
−89,678
−90,117
−90,459
−90,73
−90,964
−91,192
−91,449
−91,748
−92,087
−92,462
−92,866
−93,274
−93,645
−93,908
−93,969
−93,76
−93,238
−92,387
−91,215
−89,72
−87,889
−85,713
−83,201
−80,39
−77,332
−74,074
−70,659
−67,159
−63,676
−60,36
−57,381
−54,868
−52,908
−51,556
−50,831
−50,748
−51,324
−52,55
−54,384
−56,784
−59,681
−62,993
−66,738
−70,956
−75,695
−81,047
−87,037
−93,635
−100,938
−109,111
−118,095
−127,694
−137,515
−146,871
−155,329
−162,66
−168,381
−171,955
−173,181
−172,036
−168,953
−164,968
−160,733
−156,689
−153,8
−153,032
−154,979
−160,264
−168,937
−180,204
−193,746
−208,006
−219,383
−224,876
−221,496
−209,007
−190,709
−166,253
−132,371
−80,986
−0,294
112,159
251,511
406,102
559,245
703,104
834,83
952,731
1053,396
1124,534
1151,023
1120,486
1030,808
890,635
712,935
514,345
306,109
96,664
−101,007
−276,349
−417,088
−511,805
−560,429
−566,373
−537,002
−486,226
−424,725
−362,967
−310,615
−268,935
−235,263
−205,819
−177,407
−152,125
−136,59
−134,389
−142,906
−156,24
−165,247
−165,455
−160,343
−153,801
−150,224
−150,583
−150,965
−149,372
−145,089
−138,785
−133,007
−128,735
−126,182
−125,8
−127,157
−129,657
−132,738
−135,336
−136,911
−137,7
−137,726
−136,833
−135,007
−132,218
−128,678
−124,974
−121,293
−117,327
−112,909
−107,959
−102,473
−96,663
−90,628
−84,258
−77,613
−70,919
−64,338
−58,05
−52,164
−46,643
−41,478
−36,706
−32,315
−28,283
−24,589
−21,175
−17,987
−14,992
−12,135
−9,372
−6,667
−3,974
−1,255
1,521
4,384
7,353
10,437
13,65
17,008
20,531
24,241
28,153
32,278
36,626
41,206
46,027
51,099
56,423
62,001
67,832
73,918
80,26
86,856
93,702
100,789
108,105
115,635
123,362
131,268
139,33
147,523
155,82
164,195
172,619
181,063
189,496
197,886
206,201
214,409
222,475
230,369
238,056
245,505
252,683
259,561
266,107
272,293
278,091
283,476
288,422
292,908
296,912
300,416
303,403
305,86
307,774
309,138
309,945
310,19
309,875
309
307,57
305,593
303,081
300,044
296,499
292,464
287,958
283,003
277,623
271,843
265,691
259,194
252,383
245,287
237,939
230,369
222,612
214,7
206,667
198,545
190,368
182,169
173,98
165,833
157,759
149,787
141,945
134,262
126,761
119,469
112,406
105,592
99,047
92,785
86,822
81,168
75,833
70,826
66,15
61,81
57,807
54,14
50,808
47,806
45,13
42,772
40,724
38,977
37,521
36,344
35,434
34,777
34,361
34,17
34,189
34,403
34,796
35,351
36,053
36,884
37,829
38,871
39,995
41,186
42,429
43,71
45,015
46,332
47,649
48,955
50,239
51,493
52,707
53,875
54,989
56,044
57,034
57,956
58,806
59,58
60,276
60,891
61,424
61,873
62,238
62,518
62,716
62,832
62,871
62,835
62,731
62,563
62,339
62,067
61,753
61,407
61,036
60,65
60,258
59,868
59,489
59,13
58,8
58,511
58,274
58,1
58
57,987
58,07
58,26
58,57
59,01
59,588
60,316
61,203
62,267
63,525
64,994
66,678
68,579
70,69
73,001
75,496
78,151
80,928
83,794
86,718
89,674
92,653
95,638
98,604
101,521
104,35
107,058
109,635
112,079
114,391
116,59
118,707
120,799
122,961
125,275
127,796
130,561
133,562
136,794
140,263
143,971
147,914
152,086
156,442
160,938
165,538
170,177
174,762
179,159
183,172
186,625
189,393
191,388
192,568
192,894
192,323
190,839
188,451
185,183
181,073
176,121
170,318
163,699
156,28
148,097
139,184
129,462
118,874
107,395
94,924
81,443
67,1
52,071
36,8
21,981
8,173
−3,989
−13,764
−20,743
−24,731
−25,666
−24,147
−21,118
−17,385
−14,064
−12,508
−13,725
−18,583
−27,975
−41,035
−55,164
−68,228
−77,51
−82,192
−85,576
−88,383
−87,187
−74,586
−36,111
39,494
152,454
295,478
452,136
605,869
750,136
882,208
1001,987
1105,378
1178,982
1208,862
1183,017
1099,223
965,593
791,672
591,38
377,768
163,677
−30,909
−188,985
−301,379
−366,998
−398,18
−411,501
−416,326
−416,3
−408,573
−387,53
−353,636
−311,409
−266,507
−224,97
−190,121
−163,069
−144,445
−134,17
−131,469
−134,993
−143,053
−154,048
−166,214
−177,864
−187,482
−193,689
−196,053
−195,032
−191,318
−185,741
−179,286
−172,83
−167,312
−163,727
−162,477
−163,468
−166,421
−170,833
−176,196
−182,141
−188,21
−193,906
−198,917
−203,022
−206,115
−208,244
−209,446
−209,743
−209,195
−207,862
−205,804
−203,122
−199,904
−196,232
−192,196
−187,854
−183,272
−178,531
−173,724
−168,964
−164,336
−159,885
−155,638
−151,616
−147,834
−144,305
−141,022
−137,945
−135,037
−132,263
−129,595
−127,018
−124,508
−122,028
−119,539
−116,995
−114,358
−111,607
−108,72
−105,676
−102,457
−99,044
−95,43
−91,619
−87,608
−83,395
−78,973
−74,334
−69,476
−64,401
−59,11
−53,608
−47,899
−41,988
−35,884
−29,597
−23,137
−16,519
−9,753
−2,854
4,163
11,279
18,473
25,723
33,006
40,296
47,57
54,799
61,957
69,019
75,957
82,746
89,36
95,774
101,962
107,9
113,564
118,931
123,979
128,686
133,034
137,003
140,578
143,743
146,485
148,792
150,655
152,067
153,022
153,517
153,552
153,127
152,247
150,918
149,146
146,943
144,321
141,293
137,874
134,083
129,938
125,459
120,666
115,582
110,229
104,632
98,814
92,802
86,619
80,293
73,85
67,315
60,715
54,075
47,421
40,777
34,168
27,615
21,141
14,768
8,514
2,399
−3,562
−9,352
−14,959
−20,369
−25,573
−30,561
−35,328
−39,866
−44,173
−48,246
−52,083
−55,684
−59,051
−62,186
−65,093
−67,777
−70,244
−72,5
−74,554
−76,413
−78,088
−79,589
−80,924
−82,105
−83,143
−84,048
−84,831
−85,503
−86,074
−86,557
−86,96
−87,294
−87,57
−87,797
−87,984
−88,139
−88,27
−88,385
−88,492
−88,596
−88,704
−88,822
−88,954
−89,107
−89,284
−89,491
−89,73
−90,005
−90,318
−90,672
−91,069
−91,508
−91,992
−92,519
−93,093
−93,711
−94,376
−95,087
−95,843
−96,645
−97,491
−98,382
−99,315
−100,288
−101,299
−102,345
−103,423
−104,53
−105,66
−106,809
−107,971
−109,141
−110,313
−111,482
−112,64
−113,781
−114,9
−115,991
−117,046
−118,058
−119,019
−119,919
−120,751
−121,507
−122,178
−122,755
−123,227
−123,584
−123,821
−123,928
−123,896
−123,709
−123,353
−122,816
−122,099
−121,204
−120,137
−118,91
−117,535
−116,038
−114,455
−112,818
−111,156
−109,489
−107,83
−106,2
−104,626
−103,143
−101,784
−100,564
−99,478
−98,523
−97,687
−96,947
−96,265
−95,571
−94,774
−93,804
−92,616
−91,185
−89,51
−87,579
−85,368
−82,864
−80,073
−77,03
−73,785
−70,384
−66,873
−63,32
−59,824
−56,535
−53,626
−51,23
−49,45
−48,347
−47,944
−48,269
−49,339
−51,14
−53,638
−56,748
−60,347
−64,4
−68,948
−74,07
−79,912
−86,522
−93,826
−101,852
−110,691
−120,238
−130,222
−140,103
−149,034
−156,388
−161,883
−165,173
−165,902
−164,076
−159,955
−154,318
−148,492
−143,46
−139,745
−137,896
−138,443
−141,566
−147,248
−154,853
−163,041
−170,944
−178,035
−183,532
−186,769
−185,968
−177,772
−159,682
−129,613
−87,584
−38,266
15,098
71,734
133,93
212,359
316,7
450,678
613,893
792,896
967,907
1119,529
1225,613
1273,478
1259,374
1184,673
1060,292
895,478
699,177
485,017
266,617
64,909
−98,724
−214,713
−282,489
−314,411
−328,78
−335,793
−339,109
−334,959
−317,116
−284,489
−240,219
−192,879
−150,349
−118,289
−100,636
−94,323
−96,052
−102,708
−109,568
−116,711
−124,547
−131,925
−138,898
−143,837
−144,972
−142,454
−136,824
−128,909
−119,766
−110,228
−100,915
−92,576
−85,978
−81,372
−78,7
−77,758
−78,147
−79,475
−81,429
−83,647
−85,783
−87,69
−89,318
−90,659
−91,758
−92,604
−93,183
−93,498
−93,55
−93,311
−92,717
−91,736
−90,368
−88,656
−86,666
−84,439
−81,989
−79,32
−76,448
−73,389
−70,169
−66,816
−63,338
−59,76
−56,128
−52,501
−48,958
−45,547
−42,288
−39,179
−36,211
−33,378
−30,677
−28,1
−25,622
−23,227
−20,896
−18,617
−16,383
−14,176
−11,964
−9,709
−7,364
−4,893
−2,272
0,519
3,492
6,66
10,03
13,603
17,371
21,327
25,47
29,796
34,306
38,994
43,849
48,857
54,002
59,268
64,637
70,09
75,608
81,169
86,754
92,343
97,917
103,457
108,939
114,342
119,642
124,814
129,834
134,679
139,324
143,745
147,919
151,825
155,441
158,748
161,729
164,366
166,644
168,55
170,07
171,195
171,915
172,224
172,117
171,592
170,648
169,289
167,516
165,339
162,764
159,802
156,465
152,766
148,721
144,345
139,658
134,677
129,424
123,919
118,185
112,245
106,124
99,847
93,438
86,923
80,326
73,675
66,993
60,305
53,636
47,009
40,447
33,972
27,605
21,366
15,272
9,34
3,586
−1,978
−7,341
−12,491
−17,422
−22,127
−26,601
−30,841
−34,845
−38,613
−42,145
−45,444
−48,513
−51,356
−53,981
−56,392
−58,599
−60,608
−62,43
−64,074
−65,551
−66,871
−68,047
−69,089
−70,009
−70,819
−71,531
−72,156
−72,706
−73,192
−73,624
−74,012
−74,366
−74,694
−75,004
−75,302
−75,595
−75,887
−76,184
−76,488
−76,803
−77,131
−77,473
−77,832
−78,207
−78,6
−79,011
−79,439
−79,884
−80,346
−80,824
−81,316
−81,821
−82,338
−82,865
−83,401
−83,944
−84,491
−85,042
−85,594
−86,145
−86,693
−87,236
−87,772
−88,299
−88,816
−89,321
−89,815
−90,296
−90,764
−91,221
−91,666
−92,1
−92,524
−92,936
−93,337
−93,726
−94,102
−94,463
−94,807
−95,131
−95,432
−95,707
−95,952
−96,164
−96,339
−96,475
−96,567
−96,613
−96,609
−96,551
−96,432
−96,246
−95,989
−95,656
−95,241
−94,739
−94,141
−93,443
−92,64
−91,728
−90,697
−89,539
−88,235
−86,777
−85,165
−83,401
−81,495
−79,46
−77,31
−75,074
−72,791
−70,495
−68,222
−65,994
−63,823
−61,732
−59,747
−57,903
−56,239
−54,778
−53,518
−52,455
−51,579
−50,86
−50,26
−49,703
−49,081
−48,308
−47,321
−46,084
−44,59
−42,819
−40,743
−38,344
−35,607
−32,547
−29,206
−25,623
−21,836
−17,925
−13,991
−10,185
−6,714
−3,736
−1,365
0,31
1,25
1,41
0,75
−0,74
−3,044
−6,141
−9,972
−14,468
−19,633
−25,481
−32,042
−39,395
−47,531
−56,39
−66,046
−76,638
−88,068
−100,083
−112,203
−123,614
−133,73
−142,185
−148,336
−151,521
−151,509
−148,308
−142,477
−135,306
−127,693
−120,313
−114,402
−111,112
−111,141
−115,178
−123,155
−133,973
−147,064
−160,85
−171,531
−175,739
−170,312
−153,786
−128,872
−97,176
−56,52
−1,81
76,246
184,998
323,514
485,208
658,193
827,274
981,156
1110,74
1206,993
1264,514
1279,116
1246,682
1167,08
1041,848
872,395
666,519
437,982
205,597
−5,618
−175,033
−291,28
−354,054
−372,966
−359,382
−325,493
−279,483
−228,492
−182,468
−145,65
−120,447
−105,253
−91,878
−77,372
−61,954
−47,387
−39,285
−39,105
−44,708
−54,077
−63,918
−72,175
−78,601
−82,732
−84,232
−83,404
−80,707
−76,638
−71,967
−67,386
−63,319
−60,311
−58,867
−58,997
−60,465
−62,954
−65,989
−69,174
−72,254
−74,905
−76,818
−77,873
−78,03
−77,319
−75,831
−73,597
−70,646
−67,065
−62,973
−58,509
−53,807
−48,967
−44,083
−39,259
−34,579
−30,106
−25,88
−21,901
−18,172
−14,697
−11,48
−8,539
−5,874
−3,475
−1,317
0,635
2,418
4,066
5,616
7,112
8,586
10,07
11,583
13,132
14,727
16,383
18,115
19,941
21,879
23,943
26,147
28,504
31,026
33,723
36,603
39,67
42,928
46,38
50,03
53,881
57,935
62,189
66,641
71,283
76,109
81,107
86,267
91,571
97,003
102,547
108,182
113,89
119,649
125,437
131,23
137,006
142,738
148,404
153,976
159,43
164,74
169,882
174,828
179,556
184,041
188,26
192,189
195,809
199,098
202,038
204,612
206,805
208,602
209,992
210,965
211,512
211,626
211,304
210,544
209,346
207,711
205,645
203,152
200,241
196,921
193,204
189,104
184,634
179,812
174,656
169,186
163,421
157,386
151,102
144,594
137,887
131,008
123,981
116,835
109,595
102,289
94,944
87,586
80,241
72,936
65,694
58,539
51,494
44,581
37,82
31,229
24,827
18,629
12,649
6,902
1,398
−3,854
−8,845
−13,569
−18,021
−22,199
−26,102
−29,73
−33,085
−36,171
−38,994
−41,558
−43,873
−45,947
−47,789
−49,412
−50,827
−52,046
−53,083
−53,952
−54,665
−55,239
−55,686
−56,022
−56,259
−56,413
−56,495
−56,519
−56,498
−56,443
−56,365
−56,277
−56,187
−56,106
−56,041
−56,001
−55,992
−56,02
−56,09
−56,207
−56,372
−56,59
−56,861
−57,186
−57,566
−58,001
−58,488
−59,026
−59,613
−60,244
−60,917
−61,627
−62,371
−63,143
−63,94
−64,757
−65,589
−66,434
−67,287
−68,144
−69,002
−69,858
−70,708
−71,549
−72,378
−73,193
−73,991
−74,772
−75,534
−76,276
−76,999
−77,701
−78,383
−79,045
−79,689
−80,314
−80,922
−81,513
−82,091
−82,656
−83,211
−83,761
−84,306
−84,851
−85,399
−85,952
−86,512
−87,081
−87,659
−88,247
−88,843
−89,446
−90,053
−90,664
−91,276
−91,886
−92,491
−93,089
−93,675
−94,248
−94,802
−95,333
−95,834
−96,297
−96,714
−97,078
−97,382
−97,615
−97,771
−97,839
−97,811
−97,68
−97,437
−97,069
−96,563
−95,899
−95,062
−94,047
−92,852
−91,48
−89,941
−88,246
−86,418
−84,49
−82,492
−80,452
−78,39
−76,315
−74,24
−72,184
−70,175
−68,245
−66,421
−64,707
−63,098
−61,591
−60,165
−58,789
−57,412
−55,944
−54,303
−52,432
−50,297
−47,893
−45,228
−42,295
−39,09
−35,617
−31,893
−27,965
−23,893
−19,723
−15,511
−11,34
−7,316
−3,608
−0,386
2,23
4,146
5,319
5,743
5,397
4,287
2,453
−0,064
−3,166
−6,739
−10,775
−15,319
−20,447
−26,299
−32,863
−40,044
−47,876
−56,366
−65,39
−74,747
−83,946
−92,359
−99,74
−106,035
−111,133
−115,063
−117,875
−119,658
−121,057
−122,89
−125,294
−128,012
−130,731
−132,954
−135,141
−138,736
−144,076
−150,305
−154,858
−153,11
−142,003
−122,628
−100,384
−84,016
−80,811
−90,623
−104,771
−107,622
−82,075
−17,171
90,312
234,066
401,873
581,823
760,735
927,995
1074,905
1190,837
1267,394
1298,533
1281,018
1215,696
1107,14
960,413
779,646
573,545
353,831
137,083
−53,594
−200,962
−298,832
−351,698
−374,309
−381,331
−376,61
−355,925
−315,386
−254,589
−184,687
−124,695
−85,044
−69,844
−74,929
−88,177
−105,318
−123,765
−140,027
−154,762
−163,313
−163,053
−157,558
−148,597
−140,196
−134,506
−128,524
−120,93
−111,162
−99,519
−88,59
−79,989
−73,962
−70,459
−68,966
−69,009
−70,381
−72,788
−75,78
−78,924
−82,01
−84,952
−87,683
−90,207
−92,466
−94,34
−95,795
−96,795
−97,25
−97,122
−96,39
−95,036
−93,116
−90,702
−87,854
−84,645
−81,129
−77,333
−73,3
−69,064
−64,654
−60,133
−55,559
−50,999
−46,542
−42,251
−38,159
−34,292
−30,647
−27,206
−23,956
−20,874
−17,925
−15,092
−12,352
−9,687
−7,085
−4,52
−1,96
0,635
3,315
6,121
9,085
12,231
15,58
19,141
22,925
26,935
31,163
35,606
40,263
45,131
50,211
55,5
60,987
66,662
72,509
78,511
84,653
90,915
97,277
103,717
110,213
116,744
123,288
129,823
136,322
142,758
149,104
155,331
161,411
167,315
173,013
178,476
183,676
188,587
193,183
197,44
201,333
204,841
207,944
210,624
212,865
214,651
215,971
216,814
217,171
217,037
216,408
215,284
213,664
211,554
208,959
205,888
202,353
198,367
193,944
189,103
183,862
178,243
172,267
165,959
159,345
152,45
145,304
137,934
130,369
122,641
114,78
106,815
98,777
90,697
82,603
74,525
66,492
58,53
50,666
42,926
35,334
27,912
20,681
13,661
6,868
0,319
−5,973
−11,996
−17,741
−23,2
−28,368
−33,241
−37,817
−42,096
−46,08
−49,771
−53,175
−56,298
−59,147
−61,732
−64,063
−66,152
−68,012
−69,656
−71,098
−72,353
−73,437
−74,365
−75,154
−75,818
−76,375
−76,84
−77,229
−77,557
−77,838
−78,087
−78,317
−78,541
−78,769
−79,013
−79,281
−79,582
−79,923
−80,31
−80,748
−81,241
−81,794
−82,407
−83,082
−83,821
−84,621
−85,483
−86,404
−87,381
−88,411
−89,488
−90,608
−91,765
−92,952
−94,164
−95,392
−96,63
−97,87
−99,104
−100,325
−101,524
−102,694
−103,828
−104,918
−105,958
−106,941
−107,863
−108,719
−109,504
−110,215
−110,849
−111,404
−111,878
−112,27
−112,579
−112,805
−112,949
−113,01
−112,99
−112,891
−112,716
−112,468
−112,151
−111,768
−111,326
−110,829
−110,283
−109,695
−109,072
−108,42
−107,747
−107,06
−106,369
−105,68
−105,001
−104,341
−103,706
−103,103
−102,539
−102,019
−101,549
−101,133
−100,774
−100,477
−100,245
−100,08
−99,986
−99,963
−100,013
−100,138
−100,336
−100,608
−100,952
−101,364
−101,842
−102,382
−102,978
−103,624
−104,311
−105,033
−105,782
−106,547
−107,321
−108,091
−108,85
−109,586
−110,291
−110,955
−111,564
−112,108
−112,575
−112,955
−113,236
−113,408
−113,46
−113,378
−113,154
−112,78
−112,248
−111,548
−110,665
−109,586
−108,301
−106,814
−105,128
−103,253
−101,2
−98,989
−96,647
−94,216
−91,734
−89,232
−86,735
−84,259
−81,831
−79,485
−77,258
−75,184
−73,278
−71,54
−69,966
−68,547
−67,257
−66,048
−64,844
−63,548
−62,086
−60,414
−58,504
−56,338
−53,893
−51,141
−48,064
−44,667
−40,974
−37,021
−32,848
−28,501
−24,058
−19,642
−15,419
−11,57
−8,244
−5,535
−3,503
−2,198
−1,66
−1,918
−2,99
−4,833
−7,36
−10,545
−14,431
−19,118
−24,77
−31,46
−39,135
−47,767
−57,427
−68,102
−79,552
−91,254
−102,373
−112,117
−119,997
−125,602
−128,385
−127,913
−124,165
−117,624
−109,393
−100,736
−92,482
−85,424
−80,624
−79,005
−81,284
−87,787
−97,988
−111,224
−126,279
−140,312
−150,279
−153,196
−148,085
−137,816
−123,915
−104,234
−71,716
−13,627
79,186
207,323
363,511
533,461
704,023
866,458
1014,65
1142,87
1240,539
1296,131
1300,354
1248,099
1145,544
1002,201
826,678
631,073
423,187
212,659
17,056
−150,598
−279,451
−362,011
−403,592
−409,849
−384,539
−337,398
−275,294
−208,362
−153,389
−117,861
−103,711
−106,851
−113,933
−117,687
−116,502
−111,868
−110,092
−113,443
−120,461
−128,95
−135,437
−138,489
−138,388
−135,286
−129,889
−122,92
−114,764
−106,156
−97,836
−90,227
−83,808
−79,025
−75,965
−74,511
−74,459
−75,442
−77,124
−79,275
−81,609
−83,829
−85,783
−87,402
−88,643
−89,506
−89,924
−89,791
−89,072
−87,778
−85,934
−83,583
−80,764
−77,508
−73,888
−69,987
−65,875
−61,605
−57,21
−52,707
−48,137
−43,557
−39,046
−34,689
−30,548
−26,657
−23,043
−19,712
−16,663
−13,888
−11,357
−9,031
−6,88
−4,878
−3,006
−1,252
0,408
2,007
3,588
5,204
6,902
8,718
10,687
12,837
15,19
17,766
20,576
23,62
26,899
30,419
34,187
38,218
42,526
47,114
51,975
57,093
62,445
68,009
73,763
79,679
85,72
91,859
98,075
104,363
110,731
117,175
123,675
130,2
136,704
143,156
149,542
155,847
162,064
168,185
174,196
180,105
185,941
191,699
197,354
202,847
208,078
212,976
217,495
221,597
225,265
228,47
231,161
233,303
234,865
235,812
236,111
235,706
234,506
232,473
229,61
225,961
221,624
216,674
211,155
205,118
198,602
191,656
184,341
176,703
168,769
160,586
152,208
143,714
135,216
126,785
118,458
110,249
102,127
94,084
86,133
78,278
70,523
62,875
55,341
47,941
40,716
33,689
26,872
20,262
13,836
7,591
1,537
−4,309
−9,918
−15,266
−20,345
−25,139
−29,633
−33,819
−37,695
−41,269
−44,563
−47,592
−50,367
−52,896
−55,188
−57,25
−59,1
−60,753
−62,226
−63,538
−64,704
−65,745
−66,68
−67,529
−68,306
−69,026
−69,698
−70,333
−70,941
−71,534
−72,121
−72,709
−73,306
−73,92
−74,558
−75,226
−75,927
−76,665
−77,44
−78,253
−79,104
−79,992
−80,914
−81,869
−82,851
−83,858
−84,885
−85,927
−86,979
−88,035
−89,09
−90,138
−91,173
−92,19
−93,183
−94,147
−95,076
−95,967
−96,814
−97,614
−98,363
−99,06
−99,702
−100,287
−100,816
−101,286
−101,699
−102,055
−102,354
−102,599
−102,79
−102,931
−103,024
−103,072
−103,078
−103,046
−102,982
−102,888
−102,769
−102,631
−102,477
−102,312
−102,142
−101,971
−101,803
−101,643
−101,496
−101,365
−101,255
−101,169
−101,111
−101,084
−101,089
−101,13
−101,208
−101,324
−101,477
−101,668
−101,895
−102,159
−102,458
−102,791
−103,157
−103,553
−103,977
−104,427
−104,9
−105,393
−105,9
−106,418
−106,943
−107,468
−107,988
−108,496
−108,986
−109,45
−109,883
−110,278
−110,627
−110,924
−111,162
−111,337
−111,441
−111,471
−111,417
−111,274
−111,033
−110,69
−110,238
−109,673
−108,988
−108,175
−107,232
−106,156
−104,944
−103,591
−102,089
−100,426
−98,598
−96,61
−94,47
−92,19
−89,789
−87,285
−84,708
−82,101
−79,498
−76,932
−74,428
−71,998
−69,663
−67,451
−65,391
−63,524
−61,873
−60,433
−59,202
−58,17
−57,302
−56,56
−55,876
−55,143
−54,289
−53,258
−52,01
−50,539
−48,829
−46,851
−44,588
−42,015
−39,118
−35,922
−32,451
−28,731
−24,834
−20,839
−16,871
−13,112
−9,7
−6,743
−4,33
−2,49
−1,255
−0,658
−0,711
−1,447
−2,894
−5,029
−7,905
−11,616
−16,253
−21,98
−28,874
−36,885
−46,061
−56,417
−67,729
−79,685
−91,801
−103,35
−113,806
−122,655
−129,12
−132,678
−133,201
−130,779
−125,955
−119,528
−112,024
−104,283
−97,667
−93,148
−91,466
−93,108
−97,741
−104,991
−113,826
−121,329
−124,06
−118,712
−103,949
−81,505
−52,576
−16,243
32,671
102,858
201,182
330,452
486,643
660,601
840,071
1010,456
1159,004
1272,353
1339,388
1355,433
1316,657
1223,755
1081,253
891,176
662,481
411,995
160,709
−62,985
−235,115
−345,124
−393,97
−393,49
−360,721
−310,424
−253,462
−200,819
−160,702
−135,869
−126,445
−125,033
−121,417
−111,952
−96,328
−78,87
−66,975
−62,65
−64,74
−71,24
−78,486
−84,725
−89,85
−93,29
−94,749
−94,352
−92,217
−88,718
−84,549
−80,277
−76,349
−73,369
−71,887
−72,02
−73,584
−76,254
−79,546
−83,038
−86,446
−89,428
−91,635
−92,89
−93,113
−92,281
−90,48
−87,785
−84,238
−79,94
−75,021
−69,606
−63,869
−57,965
−52,013
−46,135
−40,423
−34,931
−29,722
−24,829
−20,268
−16,062
−12,221
−8,737
−5,617
−2,853
−0,42
1,711
3,595
5,29
6,845
8,304
9,704
11,074
12,444
13,837
15,264
16,743
18,287
19,913
21,642
23,495
25,489
27,644
29,974
32,493
35,216
38,159
41,333
44,746
48,407
52,321
56,49
60,918
65,605
70,55
75,753
81,21
86,911
92,838
98,969
105,273
111,712
118,246
124,832
131,43
138,009
144,545
151,022
157,428
163,754
169,979
176,072
182,007
187,757
193,305
198,641
203,769
208,702
213,46
218,065
222,527
226,847
231,004
234,953
238,647
242,018
245,016
247,62
249,803
251,539
252,79
253,502
253,605
253,032
251,714
249,579
246,582
242,681
237,869
232,176
225,643
218,344
210,337
201,642
192,29
182,333
171,841
160,923
149,715
138,326
126,872
115,476
104,234
93,251
82,607
72,34
62,484
53,053
44,073
35,616
27,74
20,465
13,791
7,67
2,025
−3,186
−8,008
−12,497
−16,691
−20,636
−24,369
−27,894
−31,215
−34,338
−37,284
−40,112
−42,873
−45,584
−48,249
−50,84
−53,31
−55,64
−57,813
−59,804
−61,603
−63,201
−64,595
−65,805
−66,855
−67,758
−68,52
−69,13
−69,578
−69,871
−70,028
−70,076
−70,051
−69,98
−69,888
−69,804
−69,75
−69,741
−69,789
−69,895
−70,053
−70,264
−70,531
−70,86
−71,257
−71,723
−72,256
−72,852
−73,506
−74,21
−74,958
−75,74
−76,547
−77,372
−78,21
−79,057
−79,913
−80,774
−81,636
−82,495
−83,346
−84,184
−85,004
−85,8
−86,565
−87,295
−87,987
−88,636
−89,242
−89,803
−90,318
−90,788
−91,213
−91,595
−91,935
−92,235
−92,499
−92,729
−92,93
−93,105
−93,26
−93,4
−93,528
−93,65
−93,769
−93,891
−94,019
−94,155
−94,302
−94,465
−94,644
−94,844
−95,067
−95,317
−95,596
−95,907
−96,254
−96,638
−97,06
−97,521
−98,02
−98,555
−99,125
−99,725
−100,351
−100,997
−101,66
−102,332
−103,008
−103,681
−104,345
−104,995
−105,622
−106,221
−106,783
−107,3
−107,763
−108,165
−108,497
−108,753
−108,925
−109,004
−108,984
−108,858
−108,622
−108,265
−107,778
−107,143
−106,35
−105,395
−104,281
−103,014
−101,607
−100,075
−98,446
−96,756
−95,045
−93,344
−91,681
−90,071
−88,531
−87,088
−85,77
−84,611
−83,64
−82,858
−82,261
−81,84
−81,568
−81,404
−81,28
−81,09
−80,734
−80,14
−79,256
−78,062
−76,542
−74,671
−72,436
−69,829
−66,852
−63,538
−59,922
−56,041
−51,954
−47,748
−43,555
−39,564
−35,963
−32,902
−30,485
−28,769
−27,791
−27,59
−28,168
−29,525
−31,631
−34,403
−37,845
−42,032
−47,071
−53,144
−60,362
−68,675
−78,095
−88,736
−100,477
−113,056
−125,991
−138,389
−149,555
−159,078
−166,316
−170,617
−171,765
−169,761
−165,149
−159,284
−153,18
−147,582
−143,754
−142,925
−145,844
−152,997
−164,141
−178,034
−193,677
−210,228
−224,955
−233,838
−233,568
−220,72
−195,066
−159,995
−115,161
−58,108
16,506
117,462
246,127
396,945
560,241
722,47
874,078
1010,207
1125,521
1212,026
1259,318
1254,657
1189,269
1064,754
888,274
673,976
440,138
201,855
−22,582
−216,756
−369,966
−473,367
−529,193
−545,511
−529,254
−490,855
−437,121
−374,086
−313,59
−264,903
−233,457
−220,279
−217,136
−213,881
−205,591
−191,158
−174,529
−161,649
−154,052
−150,799
−150,203
−150,091
−150,219
−151,12
−152,522
−153,931
−154,876
−154,994
−154,21
−152,288
−148,635
−143,069
−136,063
−128,573
−121,603
−115,669
−110,893
−107,469
−105,813
−106,131
−108,216
−111,402
−114,8
−117,874
−120,416
−122,268
−123,212
−123,038
−121,661
−119,245
−116,152
−112,64
−108,82
−104,736
−100,397
−95,851
−91,183
−86,449
−81,644
−76,761
−71,821
−66,867
−61,988
−57,278
−52,785
−48,516
−44,466
−40,617
−36,959
−33,492
−30,201
−27,055
−24,025
−21,081
−18,203
−15,38
−12,589
−9,796
−6,955
−4,013
−0,925
2,331
5,776
9,43
13,311
17,44
21,833
26,489
31,402
36,573
41,993
47,656
53,548
59,638
65,886
72,259
78,724
85,254
91,832
98,428
105,016
111,572
118,067
124,485
130,827
137,095
143,299
149,467
155,625
161,817
168,107
174,529
181,104
187,837
194,707
201,696
208,787
215,942
223,126
230,293
237,366
244,26
250,888
257,113
262,801
267,804
271,933
275,043
277,026
277,793
277,311
275,556
272,5
268,154
262,54
255,678
247,629
238,465
228,253
217,129
205,246
192,773
179,94
166,954
153,977
141,154
128,585
116,343
104,517
93,172
82,345
72,099
62,469
53,489
45,216
37,651
30,761
24,499
18,761
13,433
8,442
3,729
−0,749
−5,002
−9,055
−12,927
−16,611
−20,119
−23,467
−26,677
−29,802
−32,874
−35,891
−38,843
−41,688
−44,363
−46,835
−49,08
−51,076
−52,824
−54,329
−55,592
−56,64
−57,496
−58,174
−58,68
−59,004
−59,138
−59,092
−58,885
−58,545
−58,114
−57,624
−57,101
−56,579
−56,078
−55,614
−55,201
−54,843
−54,535
−54,281
−54,087
−53,961
−53,912
−53,945
−54,06
−54,257
−54,532
−54,879
−55,294
−55,77
−56,298
−56,874
−57,494
−58,154
−58,855
−59,594
−60,37
−61,18
−62,02
−62,887
−63,777
−64,687
−65,612
−66,547
−67,49
−68,437
−69,385
−70,334
−71,281
−72,225
−73,164
−74,097
−75,023
−75,943
−76,856
−77,759
−78,653
−79,537
−80,41
−81,271
−82,118
−82,948
−83,758
−84,545
−85,307
−86,038
−86,737
−87,397
−88,015
−88,589
−89,114
−89,587
−90,001
−90,351
−90,629
−90,832
−90,951
−90,978
−90,905
−90,721
−90,42
−89,995
−89,437
−88,737
−87,883
−86,857
−85,651
−84,265
−82,703
−80,972
−79,083
−77,054
−74,91
−72,691
−70,428
−68,149
−65,876
−63,623
−61,413
−59,279
−57,249
−55,351
−53,601
−51,994
−50,522
−49,172
−47,905
−46,669
−45,392
−43,984
−42,38
−40,541
−38,442
−36,073
−33,415
−30,442
−27,148
−23,543
−19,654
−15,522
−11,193
−6,729
−2,234
2,148
6,263
9,951
13,094
15,621
17,467
18,577
18,901
18,409
17,11
15,037
12,241
8,745
4,593
−0,101
−5,246
−10,772
−16,664
−23,045
−30,053
−37,731
−46,199
−55,611
−65,814
−76,504
−87,159
−96,811
−104,662
−110,123
−112,369
−110,748
−105,246
−96,144
−84,288
−71,279
−58,34
−46,616
−37,746
−32,951
−32,959
−38,232
−48,274
−62,008
−77,912
−92,829
−103,07
−105,354
−98,334
−84,287
−64,815
−38,083
2,172
67,173
164,835
294,433
448,012
612,148
774,959
930,603
1075,325
1201,611
1296,649
1343,413
1326,319
1242,665
1100,94
916,423
709,233
492,957
278,935
80,748
−90,989
−224,389
−314,516
−367,726
−392,914
−400,384
−393,655
−368,816
−324,49
−263,507
−197,16
−140,303
−101,092
−80,582
−71,893
−66,221
−59,814
−53,051
−49,241
−50,9
−57,508
−66,418
−74,34
−79,254
−80,385
−77,984
−73,044
−66,34
−58,55
−50,634
−43,385
−37,536
−33,872
−32,583
−33,459
−36,208
−40,324
−45,283
−50,652
−55,921
−60,586
−64,364
−67,094
−68,717
−69,295
−68,864
−67,457
−65,162
−62,075
−58,303
−53,957
−49,136
−43,94
−38,491
−32,92
−27,368
−21,949
−16,746
−11,835
−7,261
−3,051
0,777
4,228
7,322
10,076
12,521
14,695
16,631
18,373
19,971
21,475
22,945
24,433
25,978
27,616
29,375
31,278
33,346
35,594
38,029
40,661
43,502
46,558
49,843
53,364
57,125
61,131
65,38
69,871
74,602
79,571
84,769
90,191
95,826
101,661
107,683
113,877
120,22
126,692
133,267
139,919
146,621
153,348
160,068
166,753
173,373
179,896
186,292
192,528
198,568
204,379
209,927
215,181
220,111
224,688
228,885
232,675
236,039
238,955
241,4
243,352
244,785
245,677
246,018
245,804
245,041
243,741
241,918
239,587
236,774
233,501
229,779
225,615
220,999
215,923
210,391
204,42
198,042
191,289
184,174
176,71
168,907
160,757
152,26
143,412
134,182
124,563
114,582
104,282
93,751
83,093
72,382
61,681
51,038
40,492
30,101
19,924
10,009
0,421
−8,773
−17,498
−25,647
−33,136
−39,935
−46,04
−51,503
−56,405
−60,798
−64,724
−68,224
−71,326
−74,066
−76,484
−78,599
−80,44
−82,051
−83,488
−84,84
−86,183
−87,553
−88,962
−90,391
−91,793
−93,145
−94,43
−95,626
−96,725
−97,726
−98,625
−99,443
−100,2
−100,904
−101,552
−102,126
−102,607
−102,996
−103,306
−103,556
−103,782
−104,006
−104,25
−104,538
−104,889
−105,312
−105,814
−106,389
−107,027
−107,725
−108,48
−109,294
−110,171
−111,111
−112,108
−113,16
−114,258
−115,398
−116,572
−117,773
−118,992
−120,225
−121,467
−122,716
−123,974
−125,237
−126,505
−127,775
−129,043
−130,307
−131,565
−132,814
−134,05
−135,272
−136,477
−137,664
−138,833
−139,982
−141,108
−142,211
−143,289
−144,34
−145,36
−146,348
−147,299
−148,212
−149,083
−149,91
−150,687
−151,409
−152,072
−152,673
−153,208
−153,675
−154,067
−154,378
−154,6
−154,732
−154,768
−154,702
−154,525
−154,225
−153,794
−153,229
−152,527
−151,682
−150,681
−149,507
−148,148
−146,606
−144,885
−142,995
−140,944
−138,741
−136,418
−134,008
−131,541
−129,047
−126,544
−124,041
−121,575
−119,165
−116,821
−114,614
−112,638
−110,954
−109,615
−108,608
−107,833
−107,237
−106,835
−106,479
−105,833
−104,724
−103,156
−101,158
−99,159
−96,837
−92,738
−87,073
−81,023
−76,876
−78,945
−86,733
−95,532
−100,475
−95,187
−79,752
−60,7
−43,057
−31,964
−28,563
−29,259
−32,507
−37,33
−43,137
−50,722
−59,854
−69,903
−80,49
−90,699
−99,42
−105,822
−109,77
−112,141
−114,192
−116,783
−120,36
−125,234
−131,839
−140,61
−151,41
−163,112
−174,005
−182,639
−188,165
−190,146
−188,417
−183,089
−174,592
−164,28
−154,349
−146,748
−142,916
−143,817
−149,662
−160,276
−174,262
−188,06
−197,407
−197,938
−188,303
−170,581
−144,29
−106,987
−50,881
35,753
155,43
304,25
470,884
638,062
797,589
944,437
1074,521
1184,355
1261,117
1292,003
1268,396
1187,014
1055,737
884,705
685,743
471,978
254,215
48,526
−129,83
−269,89
−362,589
−410,506
−420,202
−397,015
−352,289
−294,118
−231,542
−179,079
−142,719
−124,083
−120,243
−120,134
−118,208
−113,515
−107,257
−104,72
−107,312
−113,285
−120,567
−125,894
−127,875
−126,661
−122,241
−115,305
−106,712
−96,983
−86,928
−77,299
−68,494
−60,998
−55,282
−51,456
−49,439
−49,014
−49,787
−51,389
−53,537
−55,933
−58,296
−60,468
−62,371
−63,961
−65,227
−66,158
−66,745
−66,985
−66,887
−66,426
−65,543
−64,225
−62,493
−60,386
−57,975
−55,3
−52,371
−49,211
−45,845
−42,303
−38,629
−34,849
−30,966
−27,009
−23,021
−19,056
−15,194
−11,478
−7,916
−4,514
−1,264
1,839
4,791
7,601
10,296
12,892
15,409
17,857
20,241
22,578
24,9
27,243
29,654
32,165
34,795
37,562
40,481
43,561
46,808
50,224
53,797
57,517
61,386
65,402
69,566
73,877
78,316
82,865
87,506
92,221
96,989
101,793
106,603
111,394
116,153
120,867
125,526
130,122
134,625
139,011
143,252
147,322
151,208
154,899
158,372
161,604
164,585
167,303
169,755
171,947
173,842
175,406
176,612
177,428
177,849
177,873
177,487
176,684
175,453
173,778
171,666
169,124
166,137
162,704
158,808
154,433
149,621
144,413
138,84
132,946
126,75
120,27
113,546
106,613
99,501
92,246
84,87
77,396
69,871
62,339
54,847
47,448
40,15
32,958
25,892
18,962
12,19
5,601
−0,799
−7,004
−12,993
−18,751
−24,26
−29,503
−34,48
−39,194
−43,647
−47,847
−51,784
−55,45
−58,847
−61,975
−64,839
−67,445
−69,797
−71,896
−73,761
−75,405
−76,846
−78,102
−79,185
−80,108
−80,888
−81,538
−82,076
−82,521
−82,886
−83,189
−83,443
−83,665
−83,869
−84,07
−84,278
−84,502
−84,753
−85,036
−85,361
−85,734
−86,159
−86,641
−87,181
−87,783
−88,448
−89,174
−89,961
−90,807
−91,706
−92,657
−93,652
−94,689
−95,76
−96,859
−97,981
−99,119
−100,266
−101,417
−102,564
−103,703
−104,826
−105,929
−107,007
−108,054
−109,068
−110,044
−110,98
−111,872
−112,72
−113,522
−114,276
−114,982
−115,639
−116,248
−116,809
−117,324
−117,794
−118,223
−118,613
−118,967
−119,289
−119,584
−119,854
−120,104
−120,335
−120,551
−120,755
−120,947
−121,128
−121,298
−121,458
−121,608
−121,746
−121,871
−121,983
−122,079
−122,158
−122,218
−122,255
−122,266
−122,243
−122,182
−122,076
−121,921
−121,709
−121,431
−121,079
−120,645
−120,123
−119,505
−118,782
−117,939
−116,958
−115,829
−114,551
−113,125
−111,557
−109,856
−108,037
−106,126
−104,161
−102,175
−100,199
−98,25
−96,34
−94,487
−92,718
−91,063
−89,552
−88,196
−86,986
−85,916
−84,971
−84,126
−83,337
−82,525
−81,587
−80,442
−79,036
−77,343
−75,356
−73,061
−70,436
−67,471
−64,178
−60,602
−56,802
−52,83
−48,731
−44,57
−40,454
−36,543
−33,03
−30,071
−27,771
−26,178
−25,312
−25,186
−25,812
−27,191
−29,248
−31,84
−34,883
−38,368
−42,413
−47,246
−52,984
−59,569
−66,945
−75,101
−83,956
−93,37
−102,847
−111,487
−118,568
−123,659
−126,547
−127,226
−125,684
−121,868
−116,363
−110,446
−105,083
−100,91
−98,29
−97,051
−97,98
−102,891
−111,446
−122,062
−132,196
−137,457
−137,615
−135,053
−131,43
−129,831
−129,648
−127,736
−122,331
−109,163
−82,08
−33,452
47,307
167,342
325,412
513,711
716,684
915,901
1097,182
1246,568
1352,712
1408,873
1407,696
1347,763
1234,02
1072,114
873,649
653,077
425,536
211,093
27,793
−112,55
−206,309
−260,537
−287,533
−298,903
−300,688
−293,236
−274,613
−243,511
−202,99
−158,759
−116,419
−80,928
−54,61
−37,813
−30,318
−30,843
−37,479
−48,331
−61,342
−74,402
−85,837
−94,236
−98,427
−98,16
−93,918
−86,451
−76,819
−66,213
−55,657
−46,209
−38,854
−33,975
−31,53
−31,279
−32,755
−35,491
−39,088
−43,058
−46,933
−50,47
−53,561
−56,185
−58,37
−60,063
−61,179
−61,667
−61,513
−60,73
−59,338
−57,357
−54,818
−51,785
−48,341
−44,576
−40,558
−36,328
−31,918
−27,354
−22,683
−17,976
−13,308
−8,759
−4,393
−0,247
3,654
7,301
10,699
13,863
16,82
19,604
22,242
24,752
27,147
29,436
31,637
33,777
35,895
38,036
40,24
42,537
44,953
47,508
50,216
53,09
56,132
59,337
62,699
66,218
69,896
73,744
77,772
81,975
86,338
90,837
95,452
100,163
104,949
109,781
114,626
119,458
124,263
129,047
133,815
138,556
143,249
147,857
152,345
156,692
160,893
164,948
168,845
172,573
176,128
179,527
182,799
185,943
188,927
191,68
194,137
196,255
198,014
199,41
200,432
201,056
201,249
200,987
200,263
199,064
197,363
195,109
192,239
188,734
184,63
180,005
174,935
169,473
163,651
157,499
151,058
144,381
137,513
130,485
123,318
116,046
108,722
101,426
94,241
87,219
80,367
73,661
67,085
60,638
54,329
48,164
42,137
36,244
30,493
24,908
19,513
14,322
9,332
4,524
−0,121
−4,606
−8,922
−13,045
−16,96
−20,66
−24,14
−27,392
−30,407
−33,179
−35,714
−38,031
−40,145
−42,07
−43,813
−45,38
−46,777
−48,014
−49,106
−50,066
−50,906
−51,638
−52,275
−52,833
−53,327
−53,769
−54,17
−54,535
−54,874
−55,193
−55,501
−55,806
−56,115
−56,434
−56,77
−57,13
−57,52
−57,946
−58,412
−58,921
−59,475
−60,076
−60,726
−61,424
−62,17
−62,964
−63,803
−64,687
−65,612
−66,577
−67,577
−68,611
−69,674
−70,764
−71,877
−73,01
−74,159
−75,322
−76,494
−77,673
−78,855
−80,038
−81,218
−82,391
−83,556
−84,708
−85,845
−86,963
−88,06
−89,133
−90,18
−91,2
−92,19
−93,151
−94,082
−94,982
−95,852
−96,693
−97,506
−98,292
−99,054
−99,795
−100,516
−101,22
−101,911
−102,591
−103,263
−103,93
−104,593
−105,254
−105,917
−106,583
−107,254
−107,934
−108,625
−109,329
−110,048
−110,785
−111,541
−112,318
−113,116
−113,935
−114,773
−115,629
−116,501
−117,385
−118,278
−119,176
−120,076
−120,971
−121,857
−122,728
−123,579
−124,403
−125,193
−125,939
−126,632
−127,262
−127,82
−128,296
−128,68
−128,964
−129,137
−129,19
−129,117
−128,909
−128,555
−128,044
−127,355
−126,477
−125,404
−124,136
−122,678
−121,039
−119,235
−117,289
−115,237
−113,11
−110,938
−108,741
−106,53
−104,319
−102,131
−99,992
−97,94
−96,006
−94,202
−92,53
−90,993
−89,575
−88,249
−86,96
−85,617
−84,137
−82,466
−80,57
−78,446
−76,103
−73,527
−70,715
−67,662
−64,37
−60,869
−57,196
−53,367
−49,427
−45,451
−41,552
−37,905
−34,679
−31,977
−29,87
−28,384
−27,528
−27,343
−27,845
−29,014
−30,837
−33,269
−36,277
−39,905
−44,15
−48,95
−54,26
−59,991
−66,118
−72,786
−80,115
−88,208
−97,226
−107,204
−118,039
−129,598
−141,399
−152,713
−162,852
−170,914
−175,967
−177,473
−175,126
−168,9
−159,541
−148,032
−135,365
−123,299
−113,746
−108,094
−107,731
−112,649
−120,68
−129,802
−137,658
−143,043
−147,429
−150,392
−148,86
−134,975
−95,882
−21,709
91,451
238,712
406,629
582,092
755,698
921,178
1075,213
1210,725
1314,001
1371,587
1372,195
1311,291
1195,558
1034,536
839,297
622,859
397,723
180,893
−7,604
−152,309
−247,367
−297,535
−315,941
−315,74
−301,977
−276,002
−238,658
−193,368
−149,671
−115,665
−93,711
−81,162
−72,553
−64,408
−57,156
−54,078
−57,088
−65,484
−77,293
−89,371
−99,684
−107,789
−113,292
−116,013
−116,223
−114,239
−110,506
−105,748
−100,539
−95,262
−90,416
−86,447
−83,447
−81,294
−79,765
−78,521
−77,276
−75,82
−73,916
−71,343
−68,066
−64,195
−59,886
−55,33
−50,676
−46,004
−41,417
−37,028
−32,899
−29,057
−25,496
−22,16
−19,034
−16,139
−13,47
−11,01
−8,707
−6,458
−4,188
−1,845
0,615
3,224
6,004
8,988
12,169
15,515
18,979
22,496
26,024
29,556
33,076
36,573
40,027
43,405
46,692
49,895
53,016
56,063
59,042
61,957
64,829
67,699
70,607
73,601
76,716
79,969
83,379
86,961
90,724
94,677
98,819
103,14
107,63
112,285
117,097
122,06
127,16
132,379
137,694
143,085
148,529
154,006
159,493
164,966
170,403
175,78
181,077
186,273
191,345
196,269
201,019
205,57
209,896
213,974
217,779
221,287
224,476
227,325
229,816
231,931
233,657
234,98
235,888
236,372
236,424
236,039
235,214
233,949
232,243
230,101
227,529
224,534
221,126
217,318
213,123
208,558
203,639
198,386
192,82
186,962
180,837
174,468
167,883
161,108
154,171
147,101
139,925
132,673
125,373
118,054
110,743
103,468
96,255
89,13
82,117
75,238
68,515
61,969
55,619
49,479
43,567
37,894
32,471
27,309
22,413
17,789
13,441
9,37
5,575
2,054
−1,197
−4,183
−6,911
−9,391
−11,633
−13,648
−15,447
−17,046
−18,457
−19,696
−20,778
−21,718
−22,534
−23,241
−23,855
−24,392
−24,869
−25,3
−25,7
−26,083
−26,463
−26,852
−27,261
−27,702
−28,184
−28,715
−29,303
−29,954
−30,674
−31,467
−32,337
−33,284
−34,311
−35,418
−36,604
−37,867
−39,206
−40,616
−42,094
−43,637
−45,238
−46,893
−48,596
−50,341
−52,122
−53,932
−55,764
−57,613
−59,471
−61,333
−63,193
−65,043
−66,88
−68,699
−70,493
−72,26
−73,995
−75,695
−77,358
−78,98
−80,56
−82,097
−83,589
−85,035
−86,436
−87,79
−89,099
−90,362
−91,581
−92,756
−93,89
−94,983
−96,037
−97,055
−98,037
−98,987
−99,906
−100,796
−101,661
−102,503
−103,323
−104,124
−104,908
−105,678
−106,436
−107,183
−107,921
−108,651
−109,374
−110,093
−110,806
−111,516
−112,222
−112,926
−113,627
−114,327
−115,025
−115,722
−116,419
−117,115
−117,812
−118,509
−119,207
−119,905
−120,605
−121,307
−122,011
−122,718
−123,427
−124,139
−124,854
−125,571
−126,291
−127,012
−127,734
−128,456
−129,177
−129,896
−130,613
−131,327
−132,037
−132,742
−133,443
−134,138
−134,826
−135,508
−136,181
−136,846
−137,499
−138,142
−138,772
−139,388
−139,989
−140,575
−141,143
−141,691
−142,219
−142,725
−143,207
−143,662
−144,088
−144,484
−144,849
−145,181
−145,48
−145,745
−145,977
−146,176
−146,342
−146,475
−146,575
−146,642
−146,675
−146,674
−146,636
−146,562
−146,448
−146,294
−146,1
−145,863
−145,583
−145,259
−144,89
−144,476
−144,018
−143,512
−142,957
−142,351
−141,689
−140,97
−140,19
−139,348
−138,44
−137,463
−136,412
−135,289
−134,09
−132,809
−131,438
−129,962
−128,373
−126,67
−124,859
−122,945
−120,944
−118,872
−116,756
−114,635
−112,546
−110,518
−108,574
−106,724
−104,982
−103,37
−101,913
−100,645
−99,589
−98,747
−98,113
−97,677
−97,415
−97,283
−97,209
−97,083
−96,806
−96,304
−95,531
−94,472
−93,114
−91,437
−89,428
−87,077
−84,39
−81,395
−78,126
−74,61
−70,894
−67,062
−63,25
−59,656
−56,479
−53,859
−51,875
−50,572
−49,967
−50,085
−50,95
−52,532
−54,756
−57,589
−61,063
−65,305
−70,524
−76,844
−84,252
−92,717
−102,24
−112,769
−124,173
−136,053
−147,718
−158,508
−167,931
−175,535
−180,844
−183,456
−183,115
−180,035
−174,966
−168,826
−162,5
−156,863
−153,001
−152
−154,691
−161,558
−172,48
−186,774
−203,712
−221,485
−236,451
−245,132
−244,17
−232,241
−211,602
−182,66
−142,712
−85,471
−0,865
116,387
263,751
432,279
608,356
781,359
944,48
1092,251
1217,472
1307,049
1347,928
1330,313
1251,271
1118,287
940,946
730,7
501,369
267,157
47,77
−136,903
−273,643
−358,306
−398,741
−407,577
−394,989
−367,968
−329,226
−282,833
−237,727
−201,192
−177,817
−166,832
−160,735
−154,773
−147,735
−140,915
−138,693
−142,095
−149,142
−157,513
−164,101
−167,41
−167,392
−163,892
−157,347
−148,554
−138,25
−127,399
−116,929
−107,452
−99,546
−93,74
−90,176
−88,716
−89,071
−90,787
−93,444
−96,711
−100,228
−103,653
−106,778
−109,48
−111,694
−113,381
−114,482
−114,921
−114,642
−113,637
−111,921
−109,517
−106,472
−102,844
−98,703
−94,135
−89,225
−84,032
−78,611
−73,009
−67,268
−61,454
−55,635
−49,88
−44,272
−38,869
−33,706
−28,806
−24,169
−19,781
−15,626
−11,68
−7,907
−4,282
−0,783
2,609
5,906
9,131
12,314
15,492
18,709
22,003
25,403
28,939
32,633
36,503
40,561
44,815
49,262
53,905
58,747
63,791
69,038
74,491
80,147
86,006
92,073
98,342
104,8
111,425
118,189
125,065
132,031
139,056
146,106
153,154
160,175
167,163
174,125
181,054
187,932
194,732
201,408
207,932
214,294
220,486
226,508
232,36
238,034
243,545
248,932
254,198
259,326
264,265
268,924
273,238
277,17
280,692
283,795
286,459
288,641
290,313
291,453
292,031
292,022
291,374
290,003
287,874
284,995
281,415
277,239
272,545
267,38
261,797
255,839
249,555
243,008
236,243
229,286
222,183
214,985
207,771
200,65
193,691
186,925
180,358
173,958
167,709
161,616
155,678
149,892
144,259
138,777
133,463
128,349
123,452
118,776
114,314
110,036
105,931
102,005
98,269
94,749
91,462
88,413
85,613
83,075
80,802
78,793
77,038
75,513
74,199
73,085
72,161
71,42
70,851
70,439
70,17
70,026
69,991
70,049
70,184
70,375
70,606
70,863
71,134
71,411
71,685
71,946
72,186
72,396
72,568
72,696
72,772
72,789
72,742
72,625
72,437
72,174
71,835
71,419
70,927
70,359
69,716
69
68,213
67,357
66,433
65,446
64,398
63,292
62,131
60,919
59,659
58,357
57,014
55,636
54,226
52,788
51,326
49,844
48,344
46,832
45,31
43,782
42,252
40,724
39,201
37,688
36,187
34,701
33,233
31,786
30,362
28,963
27,591
26,25
24,939
23,663
22,421
21,217
20,051
18,925
17,841
16,798
15,798
14,842
13,929
13,059
12,232
11,447
10,704
10
9,335
8,707
8,113
7,55
7,017
6,51
6,025
5,56
5,11
4,673
4,244
3,819
3,395
2,968
2,534
2,089
1,629
1,15
0,649
0,122
−0,434
−1,023
−1,648
−2,312
−3,017
−3,765
−4,558
−5,398
−6,285
−7,219
−8,201
−9,23
−10,305
−11,425
−12,589
−13,793
−15,035
−16,313
−17,624
−18,963
−20,326
−21,711
−23,113
−24,527
−25,949
−27,375
−28,802
−30,224
−31,638
−33,041
−34,428
−35,795
−37,14
−38,457
−39,745
−41,001
−42,221
−43,403
−44,547
−45,651
−46,715
−47,739
−48,723
−49,668
−50,576
−51,449
−52,289
−53,1
−53,884
−54,646
−55,39
−56,12
−56,841
−57,559
−58,279
−59,005
−59,742
−60,496
−61,27
−62,069
−62,896
−63,755
−64,65
−65,585
−66,563
−67,586
−68,659
−69,781
−70,957
−72,186
−73,468
−74,802
−76,185
−77,616
−79,091
−80,604
−82,15
−83,722
−85,314
−86,917
−88,524
−90,125
−91,712
−93,273
−94,801
−96,286
−97,718
−99,083
−100,372
−101,572
−102,672
−103,663
−104,534
−105,272
−105,866
−106,305
−106,583
−106,691
−106,618
−106,351
−105,874
−105,179
−104,269
−103,15
−101,83
−100,325
−98,651
−96,838
−94,926
−92,952
−90,946
−88,927
−86,91
−84,919
−82,986
−81,149
−79,444
−77,887
−76,481
−75,228
−74,123
−73,152
−72,276
−71,424
−70,507
−69,462
−68,25
−66,865
−65,309
−63,57
−61,63
−59,479
−57,121
−54,589
−51,917
−49,122
−46,228
−43,279
−40,362
−37,629
−35,24
−33,322
−31,939
−31,101
−30,806
−31,065
−31,888
−33,276
−35,174
−37,473
−40,151
−43,315
−47,142
−51,855
−57,547
−64,11
−71,476
−79,716
−88,808
−98,538
−108,433
−117,749
−125,94
−132,875
−138,467
−142,42
−144,499
−144,778
−143,632
−141,732
−139,574
−137,089
−134,881
−134,608
−137,473
−143,468
−149,646
−151,392
−146,275
−135,248
−123,986
−118,599
−121,999
−133,85
−148,393
−158,523
−155,107
−126,728
−64,214
40,512
186,654
365,024
563,863
765,783
957,93
1130,365
1268,5
1362,223
1401,466
1378,238
1298,106
1169,879
1003,441
812,236
602,989
383,187
168,056
−27,778
−188,455
−301,439
−367,837
−394,613
−390,033
−364,505
−323,9
−273,435
−222,907
−180,923
−153,234
−141,312
−139,084
−138,535
−135,507
−129,14
−122,577
−120,118
−122,443
−128,376
−135,734
−141,73
−145,415
−146,666
−145,194
−141,418
−135,858
−128,857
−121,138
−113,372
−105,953
−99,433
−94,366
−90,938
−89,125
−88,751
−89,441
−90,853
−92,719
−94,739
−96,625
−98,224
−99,477
−100,369
−100,917
−101,136
−101,035
−100,627
−99,94
−98,963
−97,649
−95,989
−94
−91,717
−89,203
−86,488
−83,577
−80,482
−77,219
−73,805
−70,277
−66,655
−62,936
−59,15
−55,333
−51,539
−47,847
−44,298
−40,902
−37,666
−34,584
−31,653
−28,877
−26,245
−23,732
−21,32
−18,99
−16,727
−14,526
−12,362
−10,203
−8,01
−5,733
−3,336
−0,797
1,907
4,792
7,87
11,152
14,639
18,324
22,203
26,275
30,541
34,998
39,644
44,466
49,453
54,591
59,863
65,256
70,75
76,328
81,971
87,66
93,376
99,102
104,817
110,499
116,125
121,67
127,108
132,416
137,565
142,531
147,286
151,808
156,071
160,054
163,735
167,093
170,11
172,768
175,05
176,941
178,428
179,5
180,146
180,358
180,132
179,462
178,349
176,791
174,792
172,356
169,49
166,202
162,504
158,406
153,925
149,075
143,876
138,346
132,508
126,384
119,999
113,379
106,549
99,537
92,371
85,078
77,686
70,223
62,718
55,198
47,691
40,224
32,822
25,512
18,318
11,264
4,37
−2,343
−8,855
−15,15
−21,211
−27,025
−32,579
−37,864
−42,87
−47,591
−52,023
−56,162
−60,008
−63,561
−66,825
−69,804
−72,504
−74,932
−77,097
−79,01
−80,681
−82,122
−83,346
−84,367
−85,199
−85,856
−86,355
−86,711
−86,939
−87,056
−87,076
−87,015
−86,889
−86,712
−86,497
−86,259
−86,009
−85,76
−85,523
−85,308
−85,124
−84,98
−84,882
−84,837
−84,849
−84,923
−85,061
−85,265
−85,537
−85,876
−86,282
−86,753
−87,288
−87,884
−88,537
−89,244
−90,001
−90,803
−91,644
−92,519
−93,423
−94,349
−95,291
−96,245
−97,203
−98,159
−99,109
−100,046
−100,965
−101,862
−102,73
−103,567
−104,367
−105,128
−105,846
−106,519
−107,145
−107,722
−108,249
−108,725
−109,15
−109,524
−109,847
−110,12
−110,343
−110,518
−110,646
−110,728
−110,768
−110,766
−110,724
−110,647
−110,535
−110,392
−110,22
−110,022
−109,801
−109,559
−109,299
−109,024
−108,736
−108,437
−108,131
−107,818
−107,501
−107,181
−106,86
−106,539
−106,218
−105,9
−105,583
−105,269
−104,959
−104,651
−104,347
−104,047
−103,75
−103,457
−103,167
−102,88
−102,595
−102,312
−102,031
−101,751
−101,471
−101,191
−100,911
−100,629
−100,345
−100,058
−99,768
−99,474
−99,176
−98,873
−98,566
−98,253
−97,935
−97,612
−97,284
−96,951
−96,614
−96,273
−95,928
−95,58
−95,228
−94,873
−94,515
−94,154
−93,791
−93,426
−93,058
−92,688
−92,317
−91,944
−91,57
−91,195
−90,82
−90,445
−90,07
−89,696
−89,324
−88,954
−88,586
−88,221
−87,86
−87,502
−87,148
−86,799
−86,453
−86,112
−85,774
−85,441
−85,113
−84,789
−84,471
−84,159
−83,856
−83,561
−83,277
−83,004
−82,745
−82,501
−82,273
−82,063
−81,874
−81,706
−81,561
−81,44
−81,345
−81,276
−81,235
−81,222
−81,238
−81,282
−81,356
−81,459
−81,592
−81,754
−81,947
−82,171
−82,425
−82,709
−83,024
−83,366
−83,736
−84,129
−84,544
−84,975
−85,417
−85,864
−86,31
−86,75
−87,176
−87,582
−87,96
−88,304
−88,609
−88,868
−89,075
−89,221
−89,296
−89,295
−89,209
−89,031
−88,753
−88,364
−87,857
−87,224
−86,46
−85,558
−84,506
−83,295
−81,908
−80,338
−78,586
−76,656
−74,554
−72,296
−69,898
−67,387
−64,804
−62,182
−59,549
−56,931
−54,343
−51,809
−49,362
−47,031
−44,845
−42,822
−40,96
−39,251
−37,688
−36,241
−34,866
−33,506
−32,08
−30,525
−28,807
−26,898
−24,793
−22,489
−19,971
−17,239
−14,311
−11,223
−8,028
−4,792
−1,573
1,547
4,456
7,044
9,175
10,739
11,67
11,909
11,434
10,254
8,375
5,826
2,667
−1,044
−5,217
−9,711
−14,47
−19,5
−24,837
−30,604
−36,859
−43,567
−50,785
−58,653
−67,189
−76,248
−85,453
−94,171
−101,928
−108,536
−113,766
−117,253
−118,707
−118,068
−115,674
−112,293
−108,599
−104,863
−101,436
−98,966
−98,082
−99,415
−103,354
−109,677
−118,283
−128,391
−137,475
−142,919
−142,099
−134,407
−123,007
−109,078
−89,702
−56,928
2,803
98,695
230,626
390,334
562,753
735,124
900,29
1053,43
1189
1294,497
1354,749
1358,252
1299,566
1185,885
1028,6
835,839
618,064
384,863
150,749
−58,736
−222,585
−331,233
−386,545
−406,055
−407,21
−394,876
−369,781
−328,574
−271,591
−212,318
−162,971
−130,429
−115,65
−109,388
−104,444
−98,828
−93,275
−92,086
−96,821
−105,831
−116,356
−124,811
−129,221
−129,012
−124,319
−116,1
−105,331
−92,928
−80,076
−67,802
−57,008
−48,537
−42,67
−39,304
−38,167
−38,765
−40,594
−43,214
−46,164
−49,051
−51,669
−53,903
−55,701
−57,061
−57,939
−58,294
−58,099
−57,314
−55,918
−53,915
−51,321
−48,201
−44,631
−40,685
−36,439
−31,952
−27,266
−22,433
−17,498
−12,504
−7,505
−2,55
2,302
6,97
11,402
15,572
19,468
23,112
26,527
29,733
32,756
35,63
38,381
41,035
43,612
46,123
48,59
51,04
53,512
56,055
58,709
61,506
64,471
67,624
70,981
74,557
78,359
82,384
86,626
91,086
95,768
100,68
105,832
111,222
116,84
122,67
128,699
134,905
141,259
147,721
154,236
160,763
167,272
173,743
180,169
186,536
192,828
199,033
205,139
211,136
217,021
222,782
228,399
233,87
239,208
244,446
249,647
254,843
260,036
265,214
270,34
275,372
280,262
284,94
289,316
293,312
296,858
299,899
302,409
304,336
305,609
306,144
305,824
304,573
302,358
299,16
294,985
289,869
283,858
277,042
269,554
261,503
252,983
244,069
234,812
225,282
215,57
205,774
196,008
186,367
176,914
167,712
158,812
150,239
142,005
134,084
126,415
118,958
111,696
104,62
97,743
91,068
84,584
78,286
72,168
66,224
60,455
54,859
49,427
44,167
39,09
34,226
29,616
25,288
21,258
17,533
14,111
10,99
8,167
5,63
3,363
1,35
−0,423
−1,968
−3,295
−4,418
−5,354
−6,125
−6,754
−7,262
−7,668
−7,99
−8,246
−8,45
−8,618
−8,76
−8,884
−9,001
−9,12
−9,25
−9,403
−9,586
−9,809
−10,077
−10,397
−10,776
−11,217
−11,722
−12,292
−12,928
−13,629
−14,394
−15,221
−16,106
−17,048
−18,043
−19,086
−20,173
−21,3
−22,462
−23,652
−24,867
−26,101
−27,349
−28,606
−29,867
−31,127
−32,383
−33,631
−34,867
−36,088
−37,292
−38,476
−39,637
−40,774
−41,885
−42,97
−44,027
−45,058
−46,062
−47,041
−47,997
−48,93
−49,843
−50,739
−51,62
−52,488
−53,347
−54,199
−55,046
−55,892
−56,739
−57,59
−58,447
−59,311
−60,185
−61,07
−61,968
−62,878
−63,803
−64,742
−65,695
−66,662
−67,643
−68,636
−69,641
−70,656
−71,678
−72,707
−73,739
−74,772
−75,803
−76,829
−77,847
−78,853
−79,845
−80,819
−81,771
−82,699
−83,598
−84,466
−85,3
−86,097
−86,855
−87,572
−88,246
−88,878
−89,465
−90,009
−90,509
−90,965
−91,379
−91,751
−92,082
−92,375
−92,631
−92,852
−93,04
−93,199
−93,331
−93,438
−93,525
−93,593
−93,647
−93,689
−93,722
−93,751
−93,778
−93,806
−93,84
−93,881
−93,933
−93,998
−94,079
−94,175
−94,287
−94,416
−94,56
−94,715
−94,879
−95,05
−95,223
−95,395
−95,561
−95,718
−95,862
−95,99
−96,098
−96,182
−96,235
−96,25
−96,223
−96,146
−96,011
−95,812
−95,538
−95,182
−94,737
−94,196
−93,553
−92,798
−91,921
−90,909
−89,755
−88,459
−87,025
−85,461
−83,782
−82,003
−80,153
−78,266
−76,372
−74,501
−72,675
−70,909
−69,226
−67,649
−66,197
−64,894
−63,753
−62,763
−61,918
−61,198
−60,56
−59,967
−59,363
−58,666
−57,827
−56,803
−55,562
−54,103
−52,411
−50,476
−48,311
−45,93
−43,36
−40,659
−37,881
−35,083
−32,368
−29,828
−27,563
−25,699
−24,316
−23,472
−23,222
−23,588
−24,584
−26,216
−28,447
−31,227
−34,502
−38,209
−42,282
−46,629
−51,184
−55,955
−60,999
−66,453
−72,457
−79,056
−86,359
−94,532
−103,471
−112,916
−122,465
−131,358
−139,001
−145,02
−148,767
−149,627
−147,504
−142,476
−135,014
−126,261
−117,037
−108,123
−100,897
−96,515
−95,828
−99,62
−107,868
−119,987
−134,494
−147,95
−156,582
−156,756
−147,305
−131,433
−110,679
−83,579
−44,324
20,226
119,867
256,407
425,424
611,178
794,422
959,363
1090,628
1178,692
1219,991
1213,431
1161,67
1068,78
937,854
770,278
570,538
348,899
121,824
−86,958
−256,286
−374,358
−439,944
−461,991
−453,432
−426,575
−390,462
−353,069
−320,263
−293,312
−271,482
−249,959
−223,856
−193,217
−160,77
−131,677
−110,047
−96,522
−89,616
−86,678
−86,023
−86,856
−88,508
−90,57
−92,229
−92,576
−91,457
−89,045
−85,533
−81,379
−77,071
−73,037
−69,93
−68,399
−68,593
−70,367
−73,452
−77,408
−81,842
−86,411
−90,653
−94,075
−96,404
−97,535
−97,472
−96,328
−94,186
−91,101
−87,187
−82,596
−77,469
−71,938
−66,119
−60,103
−53,999
−47,942
−42,044
−36,406
−31,096
−26,143
−21,565
−17,367
−13,544
−10,079
−6,947
−4,108
−1,524
0,837
3,015
5,048
6,983
8,878
10,781
12,73
14,758
16,888
19,139
21,531
24,075
26,778
29,647
32,689
35,913
39,333
42,957
46,791
50,839
55,102
59,581
64,277
69,187
74,309
79,636
85,163
90,879
96,778
102,847
109,069
115,43
121,912
128,493
135,154
141,872
148,622
155,379
162,12
168,814
175,434
181,948
188,327
194,543
200,567
206,373
211,93
217,211
222,19
226,845
231,152
235,084
238,611
241,702
244,336
246,502
248,199
249,421
250,164
250,425
250,209
249,53
248,394
246,796
244,719
242,144
239,067
235,497
231,461
226,984
222,08
216,747
210,982
204,793
198,192
191,184
183,758
175,894
167,599
158,92
149,941
140,745
131,394
121,929
112,376
102,772
93,166
83,618
74,182
64,894
55,798
46,952
38,441
30,359
22,758
15,636
8,946
2,643
−3,292
−8,861
−14,064
−18,912
−23,429
−27,632
−31,525
−35,105
−38,381
−41,384
−44,173
−46,813
−49,339
−51,742
−53,985
−56,041
−57,899
−59,561
−61,028
−62,29
−63,342
−64,191
−64,861
−65,383
−65,773
−66,035
−66,157
−66,127
−65,951
−65,652
−65,261
−64,807
−64,311
−63,79
−63,266
−62,764
−62,303
−61,892
−61,53
−61,215
−60,95
−60,743
−60,604
−60,543
−60,562
−60,664
−60,848
−61,114
−61,464
−61,894
−62,402
−62,981
−63,627
−64,339
−65,118
−65,962
−66,869
−67,838
−68,863
−69,942
−71,073
−72,251
−73,47
−74,726
−76,015
−77,331
−78,672
−80,035
−81,415
−82,81
−84,216
−85,631
−87,052
−88,474
−89,896
−91,314
−92,724
−94,123
−95,509
−96,877
−98,225
−99,551
−100,852
−102,126
−103,371
−104,584
−105,764
−106,911
−108,021
−109,096
−110,133
−111,132
−112,092
−113,013
−113,896
−114,741
−115,547
−116,315
−117,046
−117,738
−118,393
−119,009
−119,587
−120,127
−120,629
−121,094
−121,523
−121,917
−122,278
−122,607
−122,905
−123,175
−123,419
−123,638
−123,832
−124,004
−124,154
−124,281
−124,386
−124,466
−124,52
−124,545
−124,541
−124,504
−124,431
−124,321
−124,171
−123,981
−123,748
−123,468
−123,14
−122,759
−122,321
−121,824
−121,261
−120,628
−119,919
−119,128
−118,248
−117,277
−116,207
−115,033
−113,745
−112,329
−110,782
−109,105
−107,301
−105,378
−103,35
−101,23
−99,045
−96,831
−94,616
−92,429
−90,291
−88,217
−86,232
−84,36
−82,618
−81,031
−79,607
−78,335
−77,206
−76,201
−75,282
−74,414
−73,54
−72,582
−71,49
−70,223
−68,751
−67,07
−65,167
−63,029
−60,672
−58,115
−55,394
−52,578
−49,724
−46,895
−44,186
−41,679
−39,471
−37,689
−36,419
−35,73
−35,673
−36,247
−37,453
−39,285
−41,698
−44,643
−48,037
−51,733
−55,668
−59,856
−64,344
−69,285
−74,766
−80,742
−87,252
−94,407
−102,202
−110,507
−118,918
−126,752
−133,56
−139,188
−143,521
−146,398
−147,582
−146,977
−144,98
−142,38
−139,743
−137,263
−134,952
−132,962
−131,889
−132,395
−134,844
−139,244
−145,694
−153,849
−162,215
−168,634
−170,004
−164,892
−155,354
−144,058
−131,977
−114,41
−79,747
−13,849
93,506
242,636
424,499
621,841
814,899
989,114
1131,534
1232,569
1287,103
1287,684
1231,031
1119,746
957,651
756,418
532,217
302,184
86,979
−96,207
−235,939
−328,782
−379,117
−394,36
−385,59
−360,649
−326,455
−292,612
−262,452
−238,386
−220,263
−201,197
−179,139
−155,234
−131,804
−114,886
−107,096
−107,014
−112,401
−120,127
−127,992
−135,118
−140,771
−144,092
−144,289
−141,244
−135,405
−127,355
−117,914
−107,864
−97,865
−88,786
−81,428
−76,081
−72,704
−71,065
−70,751
−71,405
−72,731
−74,369
−75,986
−77,403
−78,535
−79,366
−79,92
−80,184
−80,126
−79,713
−78,905
−77,673
−76,008
−73,922
−71,452
−68,642
−65,535
−62,165
−58,552
−54,72
−50,692
−46,49
−42,139
−37,675
−33,133
−28,576
−24,085
−19,714
−15,496
−11,442
−7,539
−3,774
−0,141
3,379
6,813
10,179
13,502
16,795
20,067
23,341
26,643
30,011
33,494
37,129
40,941
44,951
49,169
53,605
58,265
63,147
68,24
73,536
79,026
84,705
90,57
96,612
102,815
109,163
115,635
122,211
128,87
135,589
142,344
149,111
155,865
162,583
169,242
175,818
182,284
188,612
194,775
200,744
206,492
211,991
217,212
222,129
226,717
230,952
234,811
238,275
241,322
243,937
246,102
247,803
249,03
249,771
250,018
249,766
249,011
247,752
245,991
243,73
240,975
237,734
234,019
229,84
225,213
220,154
214,68
208,813
202,573
195,986
189,074
181,866
174,389
166,67
158,741
150,63
142,37
133,99
125,522
116,996
108,445
99,898
91,385
82,937
74,581
66,345
58,257
50,34
42,619
35,115
27,851
20,843
14,11
7,666
1,525
−4,301
−9,804
−14,976
−19,813
−24,31
−28,467
−32,284
−35,765
−38,913
−41,736
−44,24
−46,435
−48,331
−49,941
−51,279
−52,358
−53,194
−53,803
−54,202
−54,409
−54,441
−54,316
−54,053
−53,669
−53,182
−52,61
−51,97
−51,278
−50,551
−49,804
−49,051
−48,306
−47,582
−46,89
−46,24
−45,643
−45,105
−44,635
−44,237
−43,917
−43,678
−43,523
−43,453
−43,469
−43,571
−43,757
−44,025
−44,371
−44,793
−45,285
−45,842
−46,46
−47,133
−47,855
−48,619
−49,42
−50,25
−51,105
−51,977
−52,861
−53,75
−54,638
−55,521
−56,393
−57,25
−58,088
−58,903
−59,693
−60,456
−61,188
−61,889
−62,559
−63,195
−63,799
−64,372
−64,913
−65,425
−65,91
−66,369
−66,804
−67,219
−67,616
−67,998
−68,366
−68,724
−69,075
−69,421
−69,765
−70,11
−70,459
−70,815
−71,179
−71,555
−71,945
−72,351
−72,774
−73,216
−73,678
−74,161
−74,665
−75,192
−75,74
−76,31
−76,901
−77,514
−78,145
−78,795
−79,461
−80,141
−80,834
−81,538
−82,252
−82,973
−83,701
−84,434
−85,171
−85,91
−86,651
−87,391
−88,127
−88,858
−89,58
−90,29
−90,983
−91,655
−92,302
−92,92
−93,506
−94,055
−94,563
−95,027
−95,444
−95,811
−96,125
−96,38
−96,571
−96,693
−96,741
−96,712
−96,6
−96,398
−96,1
−95,7
−95,195
−94,58
−93,845
−92,978
−91,966
−90,797
−89,472
−87,994
−86,367
−84,603
−82,718
−80,736
−78,691
−76,616
−74,538
−72,476
−70,441
−68,45
−66,527
−64,705
−63,015
−61,471
−60,073
−58,814
−57,683
−56,656
−55,693
−54,725
−53,667
−52,448
−51,023
−49,368
−47,479
−45,349
−42,968
−40,323
−37,418
−34,287
−30,978
−27,546
−24,046
−20,552
−17,164
−14,027
−11,293
−9,088
−7,497
−6,571
−6,349
−6,853
−8,091
−10,053
−12,695
−15,952
−19,763
−24,056
−28,723
−33,712
−38,999
−44,587
−50,555
−56,97
−63,836
−71,205
−79,207
−87,851
−96,957
−106,154
−114,838
−122,486
−128,825
−133,565
−136,247
−136,546
−134,453
−130,303
−124,867
−118,913
−112,837
−107,105
−102,512
−99,894
−99,983
−103,173
−109,426
−117,922
−127,053
−134,864
−138,651
−137,407
−132,699
−125,491
−115,312
−96,472
−57,265
12,836
119,399
259,587
421,467
591,982
761,316
922,059
1069,166
1194,32
1283,013
1322,43
1303,889
1226,079
1098,076
930,028
731,799
514,635
290,882
78,71
−101,469
−233,466
−311,7
−342,364
−337,386
−311,012
−272,721
−227,73
−182,942
−143,952
−115,308
−99,58
−92,68
−88,352
−83,227
−76,281
−70,27
−69,39
−74,221
−83,349
−94,535
−104,788
−112,875
−118,558
−121,356
−121,467
−119,357
−115,371
−110,15
−104,348
−98,343
−92,602
−87,681
−83,786
−80,9
−78,897
−77,452
−76,263
−75,123
−73,806
−72,116
−69,999
−67,483
−64,648
−61,626
−58,517
−55,404
−52,378
−49,503
−46,803
−44,259
−41,821
−39,469
−37,201
−35,025
−32,926
−30,842
−28,709
−26,482
−24,124
−21,609
−18,912
−15,995
−12,835
−9,447
−5,863
−2,134
1,673
5,524
9,4
13,277
17,139
20,958
24,709
28,391
32,012
35,579
39,097
42,57
46,002
49,422
52,861
56,358
59,957
63,689
67,575
71,636
75,886
80,335
84,989
89,844
94,886
100,107
105,496
111,044
116,743
122,575
128,521
134,562
140,675
146,838
153,03
159,228
165,407
171,545
177,62
183,61
189,493
195,247
200,847
206,27
211,488
216,479
221,217
225,679
229,841
233,681
237,178
240,313
243,069
245,432
247,388
248,924
250,033
250,706
250,938
250,724
250,063
248,954
247,401
245,405
242,973
240,111
236,831
233,142
229,057
224,591
219,76
214,582
209,076
203,263
197,165
190,805
184,207
177,398
170,402
163,248
155,962
148,572
141,106
133,591
126,054
118,522
111,021
103,576
96,211
88,95
81,814
74,826
68,005
61,371
54,939
48,728
42,75
37,02
31,548
26,344
21,417
16,771
12,412
8,342
4,563
1,074
−2,128
−5,045
−7,683
−10,049
−12,151
−13,997
−15,6
−16,97
−18,119
−19,061
−19,81
−20,378
−20,781
−21,034
−21,15
−21,145
−21,034
−20,832
−20,552
−20,209
−19,817
−19,389
−18,938
−18,477
−18,015
−17,565
−17,136
−16,737
−16,376
−16,062
−15,8
−15,597
−15,456
−15,382
−15,378
−15,446
−15,587
−15,802
−16,09
−16,45
−16,88
−17,38
−17,945
−18,573
−19,262
−20,007
−20,804
−21,65
−22,541
−23,471
−24,438
−25,436
−26,462
−27,511
−28,58
−29,665
−30,761
−31,867
−32,978
−34,091
−35,204
−36,314
−37,418
−38,515
−39,603
−40,68
−41,746
−42,798
−43,837
−44,861
−45,872
−46,868
−47,85
−48,817
−49,771
−50,711
−51,638
−52,552
−53,455
−54,346
−55,226
−56,096
−56,956
−57,807
−58,648
−59,48
−60,303
−61,117
−61,922
−62,717
−63,503
−64,279
−65,045
−65,8
−66,545
−67,279
−68,002
−68,713
−69,412
−70,098
−70,771
−71,431
−72,077
−72,71
−73,329
−73,933
−74,522
−75,097
−75,657
−76,203
−76,733
−77,248
−77,749
−78,235
−78,708
−79,166
−79,612
−80,046
−80,468
−80,879
−81,28
−81,672
−82,056
−82,433
−82,804
−83,169
−83,529
−83,885
−84,239
−84,59
−84,939
−85,287
−85,634
−85,98
−86,327
−86,674
−87,021
−87,369
−87,718
−88,068
−88,419
−88,772
−89,125
−89,479
−89,833
−90,188
−90,543
−90,898
−91,251
−91,602
−91,952
−92,298
−92,641
−92,979
−93,312
−93,639
−93,959
−94,271
−94,574
−94,867
−95,151
−95,423
−95,685
−95,934
−96,172
−96,397
−96,609
−96,808
−96,994
−97,166
−97,325
−97,471
−97,603
−97,723
−97,831
−97,927
−98,012
−98,087
−98,153
−98,21
−98,261
−98,305
−98,345
−98,382
−98,417
−98,454
−98,494
−98,539
−98,593
−98,659
−98,739
−98,837
−98,954
−99,095
−99,261
−99,455
−99,681
−99,941
−100,238
−100,573
−100,951
−101,372
−101,839
−102,353
−102,916
−103,529
−104,193
−104,909
−105,676
−106,494
−107,363
−108,283
−109,253
−110,27
−111,333
−112,438
−113,583
−114,761
−115,968
−117,196
−118,437
−119,682
−120,925
−122,155
−123,364
−124,542
−125,68
−126,77
−127,804
−128,774
−129,668
−130,478
−131,193
−131,802
−132,296
−132,662
−132,891
−132,97
−132,889
−132,639
−132,211
−131,598
−130,791
−129,78
−128,553
−127,105
−125,438
−123,555
−121,467
−119,189
−116,741
−114,148
−111,449
−108,679
−105,873
−103,06
−100,268
−97,519
−94,837
−92,248
−89,778
−87,443
−85,238
−83,157
−81,182
−79,292
−77,469
−75,674
−73,855
−71,961
−69,956
−67,815
−65,53
−63,107
−60,559
−57,901
−55,157
−52,379
−49,643
−47,032
−44,638
−42,528
−40,755
−39,392
−38,53
−38,256
−38,643
−39,728
−41,504
−43,942
−47
−50,63
−54,778
−59,318
−64,062
−68,879
−73,709
−78,629
−83,833
−89,43
−95,397
−101,751
−108,602
−115,978
−123,762
−131,555
−138,639
−144,479
−148,914
−151,903
−153,318
−153,014
−151,027
−147,779
−144,214
−141,137
−138,788
−137,156
−136,454
−137,208
−139,845
−144,547
−150,97
−158,567
−167,504
−177,375
−185,928
−190,38
−187,729
−176,736
−160,211
−140,155
−114,729
−77,596
−16,699
77,909
208,009
367,453
542,659
719,424
887,572
1040,291
1171,551
1271,85
1330,162
1335,541
1281,873
1172,945
1016,352
824,296
611,571
390,504
178,127
−9,017
−159,261
−263,433
−323,783
−348,078
−343,062
−318,906
−281,38
−236,227
−193,885
−159,383
−136,169
−123,858
−114,997
−106,371
−97,45
−89,251
−86,696
−91,029
−100,471
−113,178
−125,55
−135,276
−141,754
−144,228
−142,768
−138,046
−130,576
−121,088
−110,617
−100,042
−90,246
−82,192
−76,284
−72,499
−70,673
−70,409
−71,28
−72,941
−74,97
−76,954
−78,692
−80,09
−81,147
−81,952
−82,514
−82,796
−82,757
−82,292
−81,331
−79,845
−77,805
−75,225
−72,145
−68,605
−64,676
−60,432
−55,919
−51,178
−46,232
−41,08
−35,754
−30,299
−24,782
−19,311
−13,964
−8,787
−3,819
0,926
5,444
9,732
13,809
17,713
21,469
25,099
28,618
32,025
35,338
38,584
41,798
45,029
48,316
51,688
55,171
58,788
62,554
66,485
70,583
74,842
79,258
83,832
88,562
93,454
98,507
103,714
109,069
114,562
120,185
125,926
131,774
137,715
143,733
149,815
155,945
162,11
168,292
174,473
180,632
186,748
192,799
198,763
204,615
210,333
215,892
221,269
226,441
231,386
236,082
240,508
244,642
248,466
251,961
255,111
257,899
260,312
262,336
263,959
265,172
265,966
266,335
266,274
265,779
264,85
263,488
261,696
259,479
256,845
253,803
250,363
246,538
242,343
237,793
232,907
227,702
222,201
216,424
210,394
204,136
197,673
191,032
184,238
177,317
170,296
163,2
156,058
148,893
141,733
134,603
127,527
120,53
113,634
106,863
100,237
93,776
87,498
81,42
75,557
69,923
64,531
59,389
54,507
49,892
45,55
41,483
37,694
34,184
30,95
27,991
25,301
22,876
20,708
18,79
17,112
15,663
14,434
13,413
12,586
11,942
11,467
11,146
10,966
10,913
10,971
11,126
11,365
11,673
12,037
12,443
12,879
13,333
13,793
14,249
14,69
15,107
15,49
15,833
16,127
16,367
16,546
16,66
16,705
16,678
16,577
16,399
16,143
15,809
15,397
14,908
14,341
13,7
12,987
12,203
11,352
10,438
9,463
8,432
7,348
6,216
5,039
3,822
2,569
1,284
−0,029
−1,366
−2,721
−4,092
−5,474
−6,863
−8,256
−9,649
−11,039
−12,423
−13,797
−15,161
−16,51
−17,843
−19,157
−20,451
−21,723
−22,97
−24,193
−25,39
−26,56
−27,702
−28,816
−29,902
−30,958
−31,985
−32,983
−33,951
−34,889
−35,797
−36,675
−37,524
−38,343
−39,132
−39,893
−40,625
−41,329
−42,005
−42,654
−43,276
−43,873
−44,443
−44,989
−45,51
−46,007
−46,481
−46,933
−47,363
−47,772
−48,161
−48,53
−48,881
−49,214
−49,53
−49,829
−50,114
−50,384
−50,641
−50,887
−51,123
−51,35
−51,57
−51,784
−51,995
−52,203
−52,41
−52,619
−52,83
−53,045
−53,266
−53,495
−53,732
−53,98
−54,239
−54,511
−54,797
−55,097
−55,413
−55,746
−56,095
−56,461
−56,845
−57,247
−57,665
−58,102
−58,554
−59,023
−59,506
−60,003
−60,512
−61,032
−61,56
−62,095
−62,633
−63,174
−63,713
−64,249
−64,778
−65,298
−65,806
−66,298
−66,773
−67,228
−67,659
−68,065
−68,442
−68,789
−69,105
−69,386
−69,632
−69,841
−70,012
−70,145
−70,239
−70,294
−70,31
−70,288
−70,229
−70,133
−70,004
−69,841
−69,648
−69,428
−69,183
−68,916
−68,631
−68,331
−68,021
−67,704
−67,384
−67,065
−66,751
−66,447
−66,156
−65,883
−65,63
−65,401
−65,201
−65,03
−64,893
−64,792
−64,73
−64,707
−64,726
−64,788
−64,894
−65,043
−65,236
−65,473
−65,753
−66,074
−66,435
−66,835
−67,271
−67,74
−68,241
−68,77
−69,324
−69,899
−70,492
−71,099
−71,718
−72,343
−72,972
−73,601
−74,227
−74,847
−75,457
−76,056
−76,639
−77,206
−77,753
−78,28
−78,784
−79,264
−79,719
−80,148
−80,552
−80,93
−81,282
−81,609
−81,912
−82,192
−82,449
−82,686
−82,903
−83,103
−83,287
−83,457
−83,614
−83,762
−83,901
−84,033
−84,16
−84,284
−84,406
−84,527
−84,648
−84,77
−84,893
−85,018
−85,146
−85,275
−85,405
−85,538
−85,671
−85,804
−85,937
−86,068
−86,197
−86,321
−86,439
−86,549
−86,65
−86,741
−86,818
−86,881
−86,927
−86,956
−86,966
−86,956
−86,923
−86,868
−86,789
−86,686
−86,559
−86,407
−86,231
−86,031
−85,808
−85,563
−85,298
−85,014
−84,712
−84,394
−84,062
−83,718
−83,363
−83
−82,629
−82,254
−81,876
−81,498
−81,122
−80,751
−80,387
−80,032
−79,69
−79,362
−79,051
−78,758
−78,486
−78,236
−78,01
−77,809
−77,635
−77,487
−77,368
−77,276
−77,212
−77,176
−77,166
−77,181
−77,22
−77,282
−77,365
−77,467
−77,589
−77,727
−77,881
−78,05
−78,232
−78,424
−78,625
−78,833
−79,043
−79,252
−79,456
−79,649
−79,825
−79,981
−80,112
−80,211
−80,275
−80,297
−80,274
−80,203
−80,079
−79,898
−79,654
−79,341
−78,954
−78,489
−77,941
−77,303
−76,57
−75,736
−74,794
−73,744
−72,579
−71,292
−69,872
−68,306
−66,588
−64,72
−62,707
−60,556
−58,281
−55,9
−53,439
−50,937
−48,427
−45,934
−43,483
−41,087
−38,767
−36,554
−34,475
−32,557
−30,814
−29,243
−27,836
−26,582
−25,452
−24,399
−23,365
−22,268
−21,044
−19,658
−18,08
−16,303
−14,323
−12,121
−9,695
−7,064
−4,257
−1,327
1,664
4,661
7,586
10,329
12,785
14,821
16,331
17,253
17,529
17,139
16,091
14,391
12,067
9,179
5,785
1,978
−2,104
−6,402
−10,918
−15,688
−20,842
−26,452
−32,516
−39,109
−46,388
−54,398
−62,993
−71,787
−80,13
−87,456
−93,483
−97,9
−100,237
−100,146
−97,586
−92,923
−87,019
−80,779
−74,688
−69,322
−65,643
−64,439
−66,344
−71,73
−80,233
−91,403
−104,249
−116,105
−123,659
−123,615
−114,896
−99,648
−79,415
−53,445
−15,062
47,134
141,571
272,002
432,654
611,262
796,656
976,867
1143,237
1285,369
1387,574
1436,737
1421,867
1342,647
1209,759
1036,043
837,231
624,376
407,548
202,044
22,443
−116,62
−207,988
−257,233
−274,175
−269,544
−251,275
−221,409
−183,258
−143,974
−109,681
−85,536
−71,679
−61,823
−52,171
−41,564
−31,208
−25,967
−27,427
−34,16
−44,566
−55,708
−65,776
−74,491
−81,209
−85,359
−86,979
−86,258
−83,51
−79,379
−74,42
−69,003
−63,702
−59,125
−55,476
−52,73
−50,737
−49,179
−47,799
−46,428
−44,844
−42,847
−40,384
−37,502
−34,313
−30,977
−27,618
−24,32
−21,173
−18,265
−15,637
−13,299
−11,231
−9,378
−7,704
−6,191
−4,793
−3,442
−2,071
−0,611
0,992
2,769
4,754
6,976
9,448
12,174
15,135
18,299
21,621
25,045
28,525
32,03
35,526
38,98
42,367
45,667
48,874
51,995
55,039
58,011
60,925
63,796
66,648
69,513
72,426
75,426
78,544
81,804
85,226
88,825
92,609
96,584
100,749
105,093
109,609
114,288
119,122
124,104
129,221
134,46
139,803
145,234
150,736
156,29
161,88
167,486
173,093
178,68
184,231
189,728
195,154
200,488
205,71
210,797
215,727
220,478
225,029
229,357
233,44
237,259
240,793
244,027
246,942
249,523
251,755
253,626
255,123
256,235
256,955
257,273
257,184
256,683
255,768
254,437
252,691
250,532
247,964
244,992
241,623
237,866
233,731
229,231
224,379
219,192
213,685
207,877
201,79
195,443
188,861
182,066
175,083
167,937
160,654
153,259
145,779
138,24
130,667
123,087
115,524
108,004
100,551
93,188
85,938
78,822
71,861
65,074
58,478
52,091
45,927
40
34,322
28,904
23,754
18,88
14,287
9,978
5,956
2,221
−1,228
−4,394
−7,283
−9,898
−12,249
−14,344
−16,192
−17,803
−19,19
−20,364
−21,339
−22,128
−22,744
−23,203
−23,519
−23,706
−23,778
−23,752
−23,64
−23,458
−23,218
−22,936
−22,623
−22,293
−21,957
−21,627
−21,314
−21,027
−20,776
−20,569
−20,413
−20,316
−20,282
−20,317
−20,425
−20,608
−20,869
−21,209
−21,63
−22,13
−22,711
−23,371
−24,107
−24,92
−25,805
−26,76
−27,782
−28,867
−30,012
−31,212
−32,464
−33,762
−35,102
−36,48
−37,89
−39,327
−40,787
−42,264
−43,753
−45,25
−46,749
−48,247
−49,738
−51,218
−52,683
−54,131
−55,557
−56,958
−58,332
−59,676
−60,988
−62,266
−63,508
−64,712
−65,877
−67,001
−68,084
−69,124
−70,121
−71,073
−71,981
−72,845
−73,663
−74,437
−75,166
−75,852
−76,494
−77,093
−77,652
−78,17
−78,649
−79,09
−79,496
−79,868
−80,207
−80,516
−80,795
−81,047
−81,272
−81,473
−81,65
−81,805
−81,94
−82,055
−82,151
−82,231
−82,295
−82,344
−82,381
−82,405
−82,419
−82,424
−82,42
−82,411
−82,395
−82,376
−82,353
−82,328
−82,302
−82,275
−82,249
−82,224
−82,201
−82,18
−82,161
−82,145
−82,131
−82,121
−82,113
−82,109
−82,109
−82,113
−82,12
−82,133
−82,15
−82,172
−82,2
−82,233
−82,272
−82,316
−82,365
−82,42
−82,479
−82,542
−82,61
−82,68
−82,753
−82,828
−82,904
−82,98
−83,056
−83,13
−83,202
−83,271
−83,337
−83,397
−83,454
−83,504
−83,549
−83,587
−83,618
−83,641
−83,656
−83,662
−83,658
−83,644
−83,619
−83,582
−83,533
−83,471
−83,395
−83,307
−83,205
−83,089
−82,961
−82,819
−82,663
−82,496
−82,317
−82,126
−81,925
−81,715
−81,495
−81,268
−81,034
−80,793
−80,547
−80,297
−80,043
−79,785
−79,526
−79,264
−79,002
−78,74
−78,479
−78,219
−77,962
−77,709
−77,461
−77,218
−76,982
−76,753
−76,532
−76,32
−76,117
−75,924
−75,74
−75,567
−75,405
−75,253
−75,112
−74,981
−74,86
−74,75
−74,65
−74,56
−74,479
−74,409
−74,347
−74,296
−74,254
−74,222
−74,2
−74,187
−74,184
−74,19
−74,205
−74,228
−74,26
−74,3
−74,346
−74,399
−74,458
−74,522
−74,59
−74,661
−74,736
−74,813
−74,892
−74,971
−75,051
−75,129
−75,206
−75,281
−75,352
−75,42
−75,482
−75,538
−75,586
−75,626
−75,655
−75,673
−75,677
−75,667
−75,641
−75,597
−75,534
−75,45
−75,347
−75,221
−75,074
−74,903
−74,71
−74,494
−74,254
−73,99
−73,703
−73,392
−73,059
−72,703
−72,325
−71,927
−71,51
−71,075
−70,624
−70,158
−69,679
−69,191
−68,693
−68,19
−67,684
−67,178
−66,675
−66,179
−65,694
−65,222
−64,767
−64,333
−63,923
−63,538
−63,182
−62,857
−62,563
−62,304
−62,08
−61,894
−61,747
−61,639
−61,571
−61,545
−61,559
−61,612
−61,703
−61,829
−61,986
−62,172
−62,38
−62,607
−62,847
−63,094
−63,343
−63,588
−63,822
−64,038
−64,23
−64,391
−64,512
−64,585
−64,6
−64,546
−64,415
−64,199
−63,887
−63,474
−62,949
−62,306
−61,538
−60,639
−59,601
−58,414
−57,061
−55,533
−53,829
−51,952
−49,913
−47,725
−45,407
−42,984
−40,495
−37,974
−35,452
−32,955
−30,497
−28,093
−25,769
−23,556
−21,493
−19,614
−17,927
−16,436
−15,138
−14,017
−13,045
−12,169
−11,3
−10,355
−9,276
−8,026
−6,602
−5,006
−3,223
−1,238
0,957
3,366
5,964
8,716
11,607
14,597
17,623
20,59
23,337
25,708
27,589
28,894
29,591
29,679
29,136
27,96
26,182
23,813
20,907
17,555
13,713
9,29
4,175
−1,835
−8,835
−16,784
−25,772
−35,951
−47,195
−59,228
−71,513
−83,085
−93,225
−101,459
−107,083
−109,472
−108,472
−104,166
−97,212
−89,048
−80,766
−73,331
−68,152
−66,299
−68,444
−75,139
−86,095
−100,299
−116,216
−130,832
−140,414
−141,511
−133,116
−117,178
−95,11
−66,533
−25,016
40,409
137,429
269,707
431,711
611,671
799,502
984,057
1156,484
1305,533
1414,041
1467,261
1453,691
1373,611
1239,35
1065,312
868,043
658,173
442,407
232,861
42,062
−116,315
−231,469
−303,811
−339,716
−346,505
−329,945
−293,268
−240,079
−179,295
−125,113
−87,753
−71,037
−70,682
−74,73
−75,479
−70,969
−63,474
−59,103
−60,135
−65,307
−72,277
−77,702
−80,239
−80,014
−77,043
−71,91
−65,27
−57,558
−49,532
−41,916
−35,144
−29,7
−26,056
−24,32
−24,354
−25,895
−28,52
−31,836
−35,567
−39,408
−43,02
−46,205
−48,857
−50,892
−52,305
−53,073
−53,119
−52,436
−51,058
−49,023
−46,398
−43,258
−39,659
−35,678
−31,402
−26,89
−22,202
−17,385
−12,469
−7,508
−2,558
2,32
7,048
11,571
15,858
19,888
23,66
27,187
30,481
33,566
36,475
39,233
41,863
44,385
46,807
49,151
51,446
53,727
56,036
58,412
60,879
63,463
66,183
69,052
72,081
75,276
78,635
82,161
85,862
89,743
93,812
98,074
102,527
107,168
111,994
116,995
122,159
127,476
132,934
138,525
144,25
150,098
156,051
162,085
168,169
174,272
180,37
186,426
192,4
198,261
203,983
209,557
214,988
220,267
225,374
230,283
234,95
239,352
243,482
247,335
250,912
254,22
257,258
260,048
262,628
265,001
267,143
269,009
270,52
271,633
272,324
272,577
272,397
271,781
270,709
269,167
267,135
264,568
261,423
257,641
253,145
247,919
241,988
235,402
228,249
220,59
212,461
203,909
194,959
185,627
175,931
165,898
155,575
145,062
134,465
123,893
113,465
103,248
93,28
83,586
74,163
65,02
56,174
47,636
39,436
31,634
24,298
17,473
11,169
5,337
−0,081
−5,128
−9,851
−14,271
−18,407
−22,277
−25,883
−29,216
−32,271
−35,048
−37,567
−39,88
−42,05
−44,115
−46,088
−47,941
−49,649
−51,204
−52,6
−53,839
−54,914
−55,82
−56,568
−57,183
−57,697
−58,129
−58,487
−58,762
−58,941
−59,029
−59,039
−59
−58,936
−58,864
−58,797
−58,753
−58,751
−58,809
−58,933
−59,118
−59,36
−59,656
−60,011
−60,431
−60,919
−61,477
−62,1
−62,785
−63,53
−64,331
−65,184
−66,083
−67,02
−67,99
−68,99
−70,019
−71,075
−72,156
−73,257
−74,375
−75,508
−76,652
−77,805
−78,961
−80,118
−81,271
−82,419
−83,56
−84,691
−85,812
−86,919
−88,011
−89,088
−90,148
−91,191
−92,215
−93,22
−94,207
−95,173
−96,12
−97,046
−97,952
−98,836
−99,699
−100,54
−101,359
−102,155
−102,928
−103,678
−104,405
−105,11
−105,791
−106,448
−107,082
−107,693
−108,28
−108,844
−109,386
−109,905
−110,401
−110,874
−111,325
−111,754
−112,162
−112,546
−112,909
−113,25
−113,57
−113,868
−114,144
−114,401
−114,637
−114,854
−115,052
−115,233
−115,397
−115,546
−115,68
−115,801
−115,909
−116,006
−116,091
−116,167
−116,234
−116,293
−116,344
−116,389
−116,429
−116,463
−116,493
−116,52
−116,544
−116,566
−116,586
−116,605
−116,624
−116,642
−116,661
−116,68
−116,7
−116,722
−116,744
−116,768
−116,792
−116,817
−116,842
−116,866
−116,888
−116,909
−116,927
−116,942
−116,953
−116,96
−116,962
−116,957
−116,947
−116,93
−116,905
−116,872
−116,829
−116,777
−116,714
−116,64
−116,554
−116,455
−116,342
−116,215
−116,073
−115,915
−115,74
−115,549
−115,34
−115,113
−114,868
−114,606
−114,326
−114,028
−113,713
−113,382
−113,034
−112,67
−112,291
−111,896
−111,487
−111,063
−110,625
−110,173
−109,707
−109,228
−108,737
−108,233
−107,717
−107,191
−106,655
−106,111
−105,558
−104,999
−104,434
−103,866
−103,294
−102,722
−102,151
−101,581
−101,015
−100,454
−99,899
−99,351
−98,811
−98,279
−97,758
−97,247
−96,748
−96,262
−95,79
−95,335
−94,897
−94,48
−94,085
−93,715
−93,372
−93,057
−92,773
−92,522
−92,306
−92,126
−91,983
−91,88
−91,815
−91,792
−91,81
−91,869
−91,969
−92,11
−92,29
−92,51
−92,767
−93,061
−93,39
−93,753
−94,147
−94,571
−95,024
−95,501
−95,999
−96,515
−97,042
−97,577
−98,112
−98,639
−99,149
−99,635
−100,09
−100,503
−100,869
−101,177
−101,421
−101,595
−101,694
−101,709
−101,633
−101,457
−101,172
−100,77
−100,242
−99,58
−98,776
−97,82
−96,708
−95,44
−94,015
−92,432
−90,684
−88,765
−86,674
−84,42
−82,014
−79,468
−76,796
−74,022
−71,178
−68,312
−65,469
−62,682
−59,972
−57,352
−54,837
−52,444
−50,19
−48,091
−46,141
−44,332
−42,661
−41,134
−39,747
−38,475
−37,272
−36,06
−34,78
−33,407
−31,937
−30,379
−28,742
−27,041
−25,305
−23,583
−21,946
−20,442
−19,093
−17,901
−16,878
−16,067
−15,545
−15,422
−15,765
−16,583
−17,863
−19,575
−21,691
−24,18
−26,956
−29,863
−32,797
−35,759
−38,855
−42,312
−46,292
−50,833
−56,002
−61,888
−68,497
−75,749
−83,296
−90,502
−96,819
−101,87
−105,292
−106,743
−105,943
−102,68
−97,182
−90,122
−82,229
−74,225
−66,882
−61,068
−57,681
−57,689
−61,743
−69,905
−82,035
−96,864
−111,788
−124,058
−130,484
−129,74
−122,877
−109,595
−88,528
−53,84
3,774
90,271
209,104
356,116
522,171
699,399
876,464
1043,438
1187,321
1289,781
1337,733
1321,51
1242,444
1112,624
943,863
750,471
543,217
332,07
133,152
−38,489
−169,525
−255,137
−302,712
−324,221
−332,566
−334,445
−329,53
−315,728
−291,097
−257,447
−219,573
−181,921
−148,072
−120,065
−98,345
−82,806
−73,007
−67,99
−66,552
−67,671
−70,411
−73,536
−75,939
−76,672
−74,881
−70,538
−64,197
−56,382
−47,72
−38,981
−30,804
−23,894
−18,996
−16,329
−15,729
−16,917
−19,426
−22,793
−26,686
−30,693
−34,36
−37,393
−39,564
−40,758
−41,003
−40,329
−38,759
−36,355
−33,18
−29,306
−24,847
−19,912
−14,599
−9,013
−3,223
2,693
8,642
14,522
20,208
25,612
30,691
35,418
39,777
43,759
47,354
50,582
53,488
56,119
58,52
60,726
62,762
64,664
66,48
68,26
70,063
71,938
73,917
76,03
78,309
80,779
83,467
86,387
89,543
92,943
96,597
100,516
104,713
109,196
113,966
119,023
124,367
129,993
135,898
142,075
148,512
155,197
162,118
169,259
176,605
184,135
191,828
199,658
207,596
215,613
223,678
231,757
239,817
247,822
255,737
263,526
271,155
278,588
285,79
292,726
299,362
305,664
311,601
317,142
322,256
326,915
331,095
334,769
337,916
340,515
342,549
344,002
344,861
345,115
344,758
343,785
342,193
339,984
337,161
333,732
329,707
325,097
319,919
314,189
307,928
301,159
293,907
286,197
278,057
269,519
260,613
251,372
241,829
232,02
221,978
211,741
201,345
190,826
180,22
169,564
158,894
148,246
137,654
127,152
116,773
106,549
96,509
86,683
77,096
67,773
58,738
50,011
41,611
33,553
25,852
18,52
11,565
4,996
−1,184
−6,971
−12,365
−17,368
−21,982
−26,214
−30,07
−33,558
−36,69
−39,476
−41,929
−44,064
−45,895
−47,439
−48,713
−49,734
−50,521
−51,093
−51,469
−51,668
−51,709
−51,613
−51,397
−51,081
−50,683
−50,22
−49,711
−49,17
−48,615
−48,058
−47,515
−46,997
−46,516
−46,083
−45,707
−45,396
−45,158
−44,999
−44,925
−44,94
−45,048
−45,251
−45,552
−45,951
−46,449
−47,045
−47,738
−48,525
−49,405
−50,374
−51,429
−52,565
−53,778
−55,063
−56,414
−57,826
−59,293
−60,809
−62,368
−63,963
−65,59
−67,24
−68,909
−70,591
−72,28
−73,971
−75,659
−77,339
−79,006
−80,656
−82,285
−83,889
−85,464
−87,008
−88,516
−89,986
−91,416
−92,803
−94,146
−95,443
−96,692
−97,892
−99,042
−100,143
−101,192
−102,192
−103,141
−104,041
−104,893
−105,697
−106,455
−107,169
−107,84
−108,471
−109,062
−109,616
−110,134
−110,62
−111,074
−111,498
−111,894
−112,265
−112,611
−112,935
−113,238
−113,521
−113,787
−114,037
−114,271
−114,492
−114,7
−114,897
−115,084
−115,262
−115,432
−115,594
−115,749
−115,898
−116,041
−116,176
−116,306
−116,428
−116,542
−116,648
−116,745
−116,832
−116,908
−116,973
−117,025
−117,065
−117,091
−117,103
−117,1
−117,083
−117,05
−117,003
−116,942
−116,867
−116,778
−116,677
−116,564
−116,439
−116,304
−116,159
−116,004
−115,84
−115,668
−115,487
−115,3
−115,107
−114,91
−114,709
−114,506
−114,303
−114,102
−113,905
−113,713
−113,528
−113,352
−113,187
−113,035
−112,897
−112,776
−112,672
−112,586
−112,52
−112,472
−112,444
−112,435
−112,444
−112,468
−112,508
−112,561
−112,627
−112,704
−112,791
−112,887
−112,991
−113,101
−113,217
−113,335
−113,455
−113,572
−113,685
−113,79
−113,883
−113,96
−114,015
−114,043
−114,041
−114,003
−113,923
−113,798
−113,621
−113,389
−113,099
−112,746
−112,327
−111,835
−111,266
−110,617
−109,883
−109,061
−108,146
−107,135
−106,022
−104,809
−103,492
−102,069
−100,531
−98,867
−97,073
−95,154
−93,117
−90,973
−88,739
−86,435
−84,091
−81,752
−79,455
−77,234
−75,113
−73,106
−71,233
−69,521
−67,997
−66,697
−65,639
−64,817
−64,225
−63,854
−63,672
−63,632
−63,656
−63,63
−63,469
−63,114
−62,525
−61,69
−60,589
−59,202
−57,52
−55,533
−53,253
−50,709
−47,928
−44,928
−41,775
−38,566
−35,449
−32,636
−30,279
−28,471
−27,275
−26,714
−26,804
−27,576
−29,001
−31
−33,558
−36,734
−40,679
−45,655
−51,827
−59,21
−67,8
−77,595
−88,486
−100,185
−112,139
−123,51
−133,555
−141,874
−148,149
−151,975
−153,118
−151,665
−148,124
−143,538
−138,982
−135,024
−132,184
−131,269
−132,904
−137,517
−145,284
−155,671
−168,026
−181,401
−193,536
−201,491
−202,222
−194,761
−181,138
−163,456
−142,185
−111,646
−60,802
20,186
137,721
288,371
461,385
645,607
828,117
999,374
1148,553
1258,982
1316,794
1312,054
1244,978
1128,807
978,935
806,767
618,143
416,487
209,79
15,779
−143,751
−255,849
−319,85
−346,988
−354,514
−351,829
−339,288
−315,968
−281,742
−241,656
−206,257
−180,835
−164,453
−154,324
−144,721
−133,458
−123,229
−115,223
−110,258
−107,905
−105,408
−101,524
−96,332
−89,893
−82,807
−75,416
−67,533
−59,42
−51,631
−44,491
−38,219
−32,957
−28,699
−25,578
−23,919
−23,74
−24,833
−26,955
−29,778
−33,055
−36,64
−40,293
−43,666
−46,488
−48,563
−49,766
−50,096
−49,567
−48,177
−45,976
−43,042
−39,471
−35,374
−30,855
−25,992
−20,85
−15,484
−9,947
−4,315
1,322
6,875
12,254
17,404
22,29
26,888
31,191
35,202
38,942
42,446
45,759
48,917
51,946
54,87
57,71
60,497
63,269
66,07
68,944
71,931
75,059
78,356
81,845
85,542
89,459
93,6
97,961
102,544
107,353
112,388
117,655
123,153
128,879
134,827
140,989
147,355
153,912
160,647
167,542
174,58
181,742
189,007
196,358
203,771
211,224
218,693
226,151
233,573
240,932
248,2
255,347
262,344
269,158
275,756
282,105
288,174
293,932
299,351
304,403
309,06
313,298
317,098
320,437
323,294
325,647
327,467
328,732
329,432
329,563
329,127
328,136
326,601
324,536
321,965
318,908
315,373
311,367
306,877
301,891
296,415
290,462
284,062
277,246
270,027
262,417
254,427
246,049
237,286
228,133
218,563
208,572
198,186
187,454
176,465
165,324
154,108
142,884
131,704
120,609
109,664
98,931
88,464
78,331
68,602
59,357
50,707
42,738
35,485
28,953
23,098
17,843
13,141
8,953
5,241
1,982
−0,859
−3,32
−5,417
−7,18
−8,651
−9,887
−10,975
−11,992
−12,975
−13,938
−14,864
−15,709
−16,454
−17,087
−17,59
−17,961
−18,201
−18,316
−18,329
−18,267
−18,142
−17,956
−17,695
−17,348
−16,92
−16,427
−15,896
−15,364
−14,859
−14,407
−14,036
−13,769
−13,617
−13,591
−13,688
−13,899
−14,223
−14,66
−15,212
−15,885
−16,678
−17,587
−18,609
−19,736
−20,961
−22,277
−23,672
−25,136
−26,662
−28,243
−29,874
−31,553
−33,274
−35,034
−36,829
−38,652
−40,499
−42,365
−44,243
−46,129
−48,016
−49,901
−51,78
−53,65
−55,509
−57,355
−59,186
−61,001
−62,798
−64,577
−66,337
−68,076
−69,793
−71,488
−73,159
−74,805
−76,427
−78,023
−79,592
−81,136
−82,652
−84,141
−85,603
−87,036
−88,44
−89,814
−91,158
−92,47
−93,75
−94,997
−96,21
−97,39
−98,535
−99,646
−100,72
−101,757
−102,757
−103,717
−104,638
−105,518
−106,356
−107,152
−107,906
−108,618
−109,288
−109,917
−110,507
−111,057
−111,569
−112,045
−112,486
−112,894
−113,271
−113,618
−113,938
−114,232
−114,503
−114,753
−114,984
−115,2
−115,401
−115,59
−115,771
−115,944
−116,113
−116,28
−116,447
−116,617
−116,793
−116,975
−117,168
−117,372
−117,591
−117,824
−118,074
−118,342
−118,628
−118,932
−119,256
−119,599
−119,96
−120,339
−120,736
−121,149
−121,578
−122,021
−122,478
−122,946
−123,424
−123,912
−124,407
−124,908
−125,413
−125,921
−126,429
−126,937
−127,442
−127,942
−128,436
−128,921
−129,397
−129,86
−130,31
−130,744
−131,161
−131,559
−131,938
−132,296
−132,632
−132,946
−133,238
−133,507
−133,754
−133,979
−134,181
−134,361
−134,521
−134,659
−134,777
−134,875
−134,954
−135,015
−135,059
−135,087
−135,1
−135,098
−135,084
−135,058
−135,023
−134,978
−134,926
−134,868
−134,805
−134,74
−134,673
−134,607
−134,541
−134,478
−134,418
−134,363
−134,312
−134,265
−134,223
−134,183
−134,147
−134,114
−134,083
−134,053
−134,024
−133,994
−133,963
−133,93
−133,891
−133,845
−133,79
−133,721
−133,637
−133,533
−133,405
−133,247
−133,056
−132,827
−132,554
−132,234
−131,862
−131,432
−130,941
−130,386
−129,761
−129,063
−128,285
−127,422
−126,47
−125,425
−124,283
−123,04
−121,691
−120,232
−118,665
−116,986
−115,194
−113,28
−111,234
−109,054
−106,746
−104,319
−101,789
−99,174
−96,494
−93,782
−91,08
−88,426
−85,853
−83,383
−81,03
−78,812
−76,76
−74,902
−73,278
−71,909
−70,792
−69,923
−69,293
−68,873
−68,621
−68,464
−68,293
−68,03
−67,626
−67,049
−66,296
−65,348
−64,184
−62,786
−61,132
−59,221
−57,066
−54,679
−52,071
−49,288
−46,411
−43,565
−40,932
−38,651
−36,8
−35,425
−34,543
−34,169
−34,315
−34,995
−36,194
−37,866
−40,054
−42,862
−46,436
−50,987
−56,65
−63,423
−71,345
−80,533
−90,872
−102,118
−113,848
−125,235
−135,613
−144,48
−151,031
−154,503
−154,605
−151,263
−144,896
−136,692
−127,583
−118,55
−111,339
−107,443
−107,692
−112,692
−122,277
−135,392
−151,116
−167,051
−178,627
−181,79
−173,6
−153,613
−123,419
−82,363
−25,867
53,451
160,945
296,151
451,169
613,533
774,123
926,619
1067,124
1191,496
1287,112
1339,716
1338,471
1277,607
1164,834
1012,729
831,882
634,131
427,21
221,669
35,387
−116,579
−223,092
−282,346
−304,291
−299,791
−277,99
−244,938
−203,615
−159,885
−121,022
−92,554
−76,191
−68,002
−63,091
−58,695
−54,894
−54,887
−60,321
−70,339
−83,104
−95,332
−104,908
−111,315
−114,105
−113,583
−110,449
−105,178
−98,448
−91,15
−83,903
−77,264
−71,837
−67,777
−64,976
−63,274
−62,313
−61,728
−61,254
−60,591
−59,492
−57,896
−55,823
−53,353
−50,618
−47,703
−44,68
−41,646
−38,664
−35,766
−32,944
−30,149
−27,366
−24,604
−21,878
−19,2
−16,534
−13,83
−11,059
−8,193
−5,213
−2,107
1,154
4,597
8,208
11,96
15,808
19,685
23,559
27,412
31,225
34,986
38,672
42,262
45,759
49,174
52,519
55,804
59,038
62,226
65,399
68,591
71,843
75,204
78,706
82,376
86,24
90,317
94,624
99,172
103,962
108,988
114,244
119,727
125,431
131,351
137,474
143,784
150,265
156,895
163,656
170,526
177,483
184,503
191,563
198,638
205,704
212,737
219,712
226,6
233,373
240
246,452
252,697
258,706
264,448
269,893
275,012
279,778
284,166
288,15
291,707
294,817
297,461
299,621
301,282
302,432
303,059
303,156
302,716
301,736
300,215
298,154
295,557
292,432
288,787
284,633
279,984
274,856
269,268
263,241
256,796
249,959
242,756
235,215
227,365
219,239
210,867
202,284
193,523
184,618
175,604
166,516
157,387
148,251
139,143
130,094
121,137
112,302
103,618
95,114
86,815
78,746
70,93
63,388
56,138
49,197
42,579
36,297
30,359
24,775
19,549
14,685
10,182
6,041
2,258
−1,172
−4,256
−7,002
−9,422
−11,526
−13,327
−14,841
−16,082
−17,066
−17,811
−18,334
−18,653
−18,785
−18,75
−18,565
−18,248
−17,818
−17,292
−16,686
−16,018
−15,302
−14,555
−13,789
−13,018
−12,254
−11,507
−10,789
−10,106
−9,468
−8,88
−8,349
−7,879
−7,473
−7,134
−6,864
−6,664
−6,535
−6,475
−6,483
−6,558
−6,697
−6,898
−7,158
−7,474
−7,842
−8,258
−8,72
−9,223
−9,763
−10,337
−10,94
−11,57
−12,222
−12,894
−13,582
−14,282
−14,993
−15,712
−16,437
−17,167
−17,898
−18,631
−19,365
−20,097
−20,829
−21,559
−22,287
−23,013
−23,738
−24,461
−25,183
−25,905
−26,626
−27,346
−28,067
−28,788
−29,51
−30,232
−30,955
−31,678
−32,403
−33,127
−33,853
−34,578
−35,304
−36,029
−36,754
−37,478
−38,201
−38,922
−39,64
−40,355
−41,067
−41,774
−42,476
−43,171
−43,86
−44,54
−45,211
−45,872
−46,522
−47,16
−47,784
−48,394
−48,988
−49,566
−50,127
−50,67
−51,194
−51,699
−52,183
−52,647
−53,089
−53,509
−53,907
−54,283
−54,635
−54,963
−55,267
−55,547
−55,802
−56,032
−56,237
−56,417
−56,571
−56,699
−56,803
−56,881
−56,935
−56,965
−56,972
−56,957
−56,92
−56,864
−56,788
−56,696
−56,587
−56,464
−56,329
−56,184
−56,029
−55,868
−55,702
−55,532
−55,362
−55,191
−55,024
−54,86
−54,703
−54,554
−54,416
−54,289
−54,177
−54,08
−54
−53,939
−53,899
−53,88
−53,884
−53,911
−53,962
−54,039
−54,14
−54,266
−54,417
−54,592
−54,791
−55,012
−55,255
−55,518
−55,8
−56,099
−56,413
−56,741
−57,081
−57,432
−57,791
−58,157
−58,528
−58,903
−59,279
−59,655
−60,029
−60,4
−60,765
−61,125
−61,476
−61,818
−62,149
−62,47
−62,777
−63,072
−63,353
−63,62
−63,873
−64,112
−64,337
−64,548
−64,746
−64,932
−65,107
−65,272
−65,428
−65,577
−65,719
−65,856
−65,989
−66,12
−66,249
−66,378
−66,507
−66,638
−66,771
−66,907
−67,048
−67,192
−67,342
−67,497
−67,658
−67,825
−67,999
−68,179
−68,365
−68,557
−68,755
−68,959
−69,168
−69,381
−69,598
−69,818
−70,04
−70,263
−70,486
−70,707
−70,926
−71,141
−71,351
−71,554
−71,751
−71,939
−72,119
−72,288
−72,448
−72,596
−72,733
−72,858
−72,971
−73,071
−73,16
−73,235
−73,299
−73,35
−73,389
−73,417
−73,433
−73,44
−73,436
−73,423
−73,402
−73,373
−73,337
−73,295
−73,249
−73,198
−73,145
−73,089
−73,033
−72,976
−72,92
−72,866
−72,814
−72,766
−72,721
−72,681
−72,646
−72,618
−72,595
−72,58
−72,573
−72,574
−72,584
−72,603
−72,633
−72,673
−72,723
−72,786
−72,86
−72,946
−73,044
−73,154
−73,277
−73,412
−73,56
−73,72
−73,893
−74,08
−74,282
−74,498
−74,73
−74,979
−75,246
−75,532
−75,838
−76,165
−76,514
−76,886
−77,282
−77,703
−78,148
−78,62
−79,116
−79,639
−80,188
−80,762
−81,362
−81,986
−82,634
−83,304
−83,997
−84,711
−85,445
−86,197
−86,967
−87,753
−88,553
−89,364
−90,183
−91,006
−91,829
−92,645
−93,449
−94,234
−94,993
−95,719
−96,405
−97,044
−97,63
−98,157
−98,619
−99,01
−99,326
−99,56
−99,705
−99,753
−99,698
−99,533
−99,25
−98,842
−98,301
−97,619
−96,794
−95,821
−94,697
−93,417
−91,972
−90,359
−88,582
−86,648
−84,571
−82,367
−80,056
−77,664
−75,232
−72,798
−70,401
−68,074
−65,837
−63,705
−61,7
−59,839
−58,143
−56,622
−55,262
−54,046
−52,962
−51,99
−51,109
−50,285
−49,445
−48,531
−47,499
−46,311
−44,97
−43,489
−41,873
−40,145
−38,344
−36,518
−34,749
−33,124
−31,679
−30,46
−29,511
−28,89
−28,715
−29,076
−30,018
−31,567
−33,694
−36,35
−39,509
−43,087
−46,913
−50,874
−54,889
−58,965
−63,303
−68,073
−73,338
−79,183
−85,696
−92,867
−100,533
−108,235
−115,191
−120,73
−124,469
−126,208
−125,784
−123,066
−118,251
−112,057
−105,668
−100,224
−96,367
−94,327
−94,371
−97,028
−102,541
−110,577
−120,357
−130,958
−141,832
−152,921
−163,112
−169,626
−169,738
−160,798
−142,51
−117,354
−86,138
−48,015
2,359
73,825
172,106
300,159
453,417
622,187
797,864
969,159
1126,805
1259,372
1350,418
1387,755
1362,062
1274,295
1135,578
957,797
755,86
541,005
324,749
123,628
−48,469
−178,038
−260,309
−300,984
−306,749
−287,911
−252,487
−206,055
−159,166
−121,054
−97,466
−90,027
−91,796
−93,634
−91,015
−83,324
−74,713
−70,736
−72,604
−78,994
−87,49
−94,951
−100,155
−102,936
−102,884
−100,228
−95,417
−88,747
−80,843
−72,413
−63,989
−56,288
−50,08
−45,69
−43,139
−42,271
−42,736
−44,208
−46,425
−49,018
−51,602
−53,944
−55,936
−57,573
−58,901
−59,901
−60,497
−60,591
−60,14
−59,135
−57,577
−55,486
−52,882
−49,792
−46,284
−42,446
−38,348
−34,042
−29,559
−24,904
−20,106
−15,217
−10,305
−5,467
−0,776
3,726
8,007
12,051
15,852
19,409
22,741
25,891
28,89
31,764
34,531
37,198
39,783
42,32
44,847
47,412
50,058
52,814
55,71
58,772
62,02
65,47
69,13
72,996
77,068
81,348
85,839
90,547
95,474
100,614
105,962
111,51
117,25
123,171
129,261
135,505
141,888
148,393
155,004
161,705
168,477
175,298
182,144
188,991
195,812
202,58
209,267
215,844
222,282
228,552
234,626
240,476
246,074
251,394
256,408
261,092
265,422
269,375
272,929
276,065
278,763
281,008
282,784
284,077
284,878
285,177
284,967
284,244
283,006
281,254
278,989
276,218
272,946
269,185
264,946
260,244
255,095
249,518
243,534
237,166
230,438
223,376
216,008
208,361
200,465
192,351
184,048
175,589
167,005
158,329
149,591
140,824
132,06
123,33
114,662
106,088
97,634
89,329
81,197
73,263
65,549
58,077
50,866
43,933
37,293
30,959
24,943
19,252
13,895
8,875
4,195
−0,146
−4,148
−7,815
−11,152
−14,165
−16,863
−19,256
−21,355
−23,171
−24,718
−26,01
−27,063
−27,892
−28,513
−28,944
−29,201
−29,301
−29,263
−29,101
−28,835
−28,479
−28,052
−27,568
−27,042
−26,489
−25,924
−25,357
−24,802
−24,268
−23,766
−23,304
−22,889
−22,527
−22,226
−21,988
−21,818
−21,719
−21,693
−21,741
−21,863
−22,061
−22,332
−22,675
−23,089
−23,571
−24,118
−24,727
−25,396
−26,119
−26,894
−27,717
−28,583
−29,489
−30,43
−31,401
−32,399
−33,421
−34,461
−35,517
−36,585
−37,663
−38,748
−39,838
−40,931
−42,025
−43,119
−44,21
−45,299
−46,384
−47,464
−48,538
−49,606
−50,666
−51,72
−52,766
−53,804
−54,833
−55,854
−56,865
−57,867
−58,858
−59,839
−60,809
−61,767
−62,712
−63,645
−64,565
−65,47
−66,36
−67,235
−68,092
−68,931
−69,75
−70,548
−71,324
−72,075
−72,8
−73,497
−74,166
−74,804
−75,41
−75,984
−76,523
−77,028
−77,496
−77,928
−78,323
−78,68
−78,999
−79,28
−79,524
−79,732
−79,903
−80,038
−80,139
−80,207
−80,243
−80,247
−80,222
−80,169
−80,09
−79,987
−79,862
−79,716
−79,554
−79,376
−79,185
−78,984
−78,775
−78,56
−78,343
−78,124
−77,907
−77,693
−77,484
−77,282
−77,088
−76,905
−76,732
−76,572
−76,424
−76,29
−76,169
−76,061
−75,967
−75,887
−75,819
−75,764
−75,721
−75,69
−75,668
−75,656
−75,653
−75,657
−75,666
−75,68
−75,698
−75,717
−75,737
−75,757
−75,774
−75,787
−75,796
−75,8
−75,797
−75,786
−75,767
−75,739
−75,702
−75,656
−75,6
−75,535
−75,461
−75,38
−75,292
−75,197
−75,098
−74,994
−74,889
−74,782
−74,676
−74,571
−74,469
−74,373
−74,282
−74,2
−74,128
−74,066
−74,016
−73,98
−73,959
−73,954
−73,965
−73,993
−74,039
−74,104
−74,187
−74,289
−74,409
−74,548
−74,705
−74,878
−75,066
−75,269
−75,484
−75,709
−75,943
−76,184
−76,428
−76,675
−76,921
−77,163
−77,4
−77,629
−77,847
−78,051
−78,239
−78,409
−78,558
−78,684
−78,785
−78,859
−78,905
−78,921
−78,906
−78,858
−78,777
−78,661
−78,51
−78,323
−78,102
−77,846
−77,555
−77,231
−76,875
−76,489
−76,074
−75,633
−75,167
−74,679
−74,171
−73,646
−73,107
−72,557
−71,999
−71,436
−70,871
−70,308
−69,748
−69,197
−68,655
−68,126
−67,612
−67,117
−66,643
−66,192
−65,768
−65,373
−65,01
−64,682
−64,391
−64,139
−63,928
−63,758
−63,631
−63,548
−63,51
−63,516
−63,566
−63,661
−63,8
−63,983
−64,21
−64,478
−64,786
−65,133
−65,516
−65,933
−66,383
−66,863
−67,37
−67,901
−68,455
−69,028
−69,617
−70,217
−70,825
−71,433
−72,037
−72,63
−73,203
−73,749
−74,26
−74,73
−75,151
−75,516
−75,819
−76,055
−76,218
−76,304
−76,308
−76,221
−76,036
−75,744
−75,339
−74,813
−74,158
−73,364
−72,424
−71,334
−70,093
−68,698
−67,147
−65,434
−63,549
−61,491
−59,266
−56,883
−54,354
−51,695
−48,926
−46,08
−43,205
−40,346
−37,538
−34,8
−32,143
−29,578
−27,123
−24,792
−22,602
−20,546
−18,614
−16,802
−15,113
−13,547
−12,089
−10,693
−9,28
−7,789
−6,186
−4,469
−2,664
−0,787
1,141
3,085
4,985
6,752
8,309
9,615
10,669
11,474
12,007
12,208
11,972
11,221
9,934
8,131
5,866
3,189
0,15
−3,171
−6,621
−9,993
−13,166
−16,152
−19,11
−22,279
−25,823
−29,795
−34,242
−39,335
−45,175
−51,668
−58,486
−65,032
−70,766
−75,459
−78,957
−80,892
−80,921
−78,945
−75,155
−70,238
−65
−59,86
−55,24
−51,939
−50,943
−53,158
−59,192
−69,155
−82,191
−96,569
−110,133
−119,829
−124,087
−124,244
−121,596
−116,143
−102,624
−68,701
−1,538
107,074
255,809
432,327
620,52
806,569
981,03
1139,303
1275,712
1379,129
1437,279
1438,096
1375,572
1254,939
1085,418
881,113
657,893
428,035
207,84
12,082
−148,733
−264,891
−337,1
−370,486
−369,651
−344,806
−303,053
−252,349
−205,112
−166,806
−140,333
−124,397
−110,955
−96,976
−82,604
−69,533
−62,884
−63,754
−70,042
−79,593
−88,746
−95,181
−98,256
−97,225
−92,21
−83,994
−73,288
−61,031
−48,371
−36,271
−25,655
−17,435
−11,959
−9,136
−8,696
−10,167
−13,058
−16,946
−21,352
−25,806
−30,032
−33,883
−37,282
−40,188
−42,527
−44,203
−45,145
−45,329
−44,756
−43,432
−41,392
−38,686
−35,387
−31,591
−27,396
−22,877
−18,1
−13,122
−7,992
−2,784
2,424
7,555
12,521
17,259
21,731
25,912
29,801
33,413
36,769
39,899
42,843
45,635
48,301
50,869
53,356
55,793
58,216
60,667
63,195
65,843
68,639
71,611
74,779
78,155
81,752
85,574
89,616
93,878
98,366
103,082
108,033
113,22
118,638
124,281
130,139
136,202
142,458
148,893
155,486
162,222
169,088
176,072
183,164
190,344
197,577
204,832
212,081
219,291
226,432
233,467
240,351
247,054
253,56
259,855
265,928
271,757
277,302
282,532
287,411
291,922
296,063
299,825
303,185
306,136
308,678
310,818
312,584
313,964
314,909
315,381
315,338
314,763
313,664
312,044
309,895
307,212
303,976
300,186
295,862
290,999
285,582
279,592
272,993
265,805
258,105
249,958
241,425
232,558
223,38
213,933
204,275
194,453
184,512
174,492
164,413
154,325
144,296
134,393
124,694
115,235
106,007
97,012
88,258
79,757
71,534
63,601
55,951
48,595
41,553
34,847
28,498
22,514
16,882
11,59
6,625
1,985
−2,314
−6,265
−9,867
−13,122
−16,036
−18,613
−20,85
−22,758
−24,36
−25,678
−26,734
−27,548
−28,133
−28,507
−28,686
−28,692
−28,547
−28,271
−27,884
−27,406
−26,859
−26,262
−25,638
−25,003
−24,371
−23,756
−23,17
−22,626
−22,135
−21,708
−21,353
−21,078
−20,891
−20,798
−20,806
−20,918
−21,136
−21,462
−21,896
−22,437
−23,084
−23,833
−24,682
−25,626
−26,661
−27,782
−28,983
−30,258
−31,601
−33,006
−34,466
−35,974
−37,524
−39,107
−40,719
−42,351
−43,999
−45,655
−47,314
−48,97
−50,619
−52,254
−53,873
−55,469
−57,041
−58,582
−60,091
−61,565
−63,001
−64,397
−65,753
−67,067
−68,338
−69,567
−70,754
−71,9
−73,004
−74,067
−75,091
−76,078
−77,027
−77,942
−78,823
−79,673
−80,493
−81,285
−82,05
−82,792
−83,511
−84,21
−84,89
−85,554
−86,202
−86,837
−87,461
−88,076
−88,682
−89,283
−89,878
−90,469
−91,058
−91,644
−92,229
−92,813
−93,396
−93,978
−94,56
−95,141
−95,721
−96,299
−96,876
−97,451
−98,024
−98,594
−99,16
−99,722
−100,281
−100,835
−101,384
−101,927
−102,465
−102,998
−103,523
−104,042
−104,554
−105,057
−105,552
−106,038
−106,514
−106,98
−107,437
−107,883
−108,319
−108,744
−109,16
−109,567
−109,964
−110,353
−110,735
−111,11
−111,479
−111,843
−112,203
−112,561
−112,917
−113,271
−113,625
−113,979
−114,333
−114,687
−115,043
−115,399
−115,756
−116,114
−116,473
−116,833
−117,194
−117,556
−117,919
−118,283
−118,649
−119,015
−119,382
−119,749
−120,117
−120,484
−120,851
−121,216
−121,578
−121,938
−122,292
−122,641
−122,982
−123,315
−123,637
−123,949
−124,248
−124,534
−124,806
−125,065
−125,311
−125,543
−125,763
−125,971
−126,167
−126,352
−126,528
−126,696
−126,856
−127,009
−127,158
−127,303
−127,444
−127,585
−127,724
−127,864
−128,004
−128,146
−128,29
−128,439
−128,593
−128,754
−128,924
−129,103
−129,294
−129,498
−129,716
−129,947
−130,192
−130,45
−130,718
−130,995
−131,276
−131,558
−131,837
−132,108
−132,367
−132,609
−132,829
−133,022
−133,185
−133,313
−133,4
−133,44
−133,426
−133,35
−133,207
−132,989
−132,689
−132,3
−131,812
−131,219
−130,516
−129,697
−128,752
−127,669
−126,431
−125,03
−123,464
−121,738
−119,858
−117,838
−115,694
−113,454
−111,155
−108,834
−106,517
−104,224
−101,964
−99,756
−97,628
−95,611
−93,739
−92,031
−90,485
−89,099
−87,868
−86,765
−85,752
−84,757
−83,684
−82,464
−81,055
−79,441
−77,628
−75,612
−73,377
−70,914
−68,227
−65,345
−62,311
−59,165
−55,943
−52,712
−49,576
−46,691
−44,232
−42,327
−41,043
−40,414
−40,446
−41,154
−42,574
−44,706
−47,514
−50,951
−54,948
−59,463
−64,495
−69,977
−75,775
−81,775
−87,874
−94,094
−100,626
−107,639
−115,268
−123,69
−132,958
−142,961
−153,512
−164,099
−173,949
−182,323
−188,363
−191,2
−190,389
−185,841
−177,777
−167,028
−154,697
−141,989
−130,56
−122,061
−117,776
−118,654
−124,928
−136,158
−150,693
−165,156
−175,751
−178,588
−171,981
−157,697
−135,938
−104,242
−56,085
19,392
128,068
267,963
430,111
600,008
766,068
920,678
1058,032
1171,363
1248,745
1278,867
1253,463
1170,417
1037,269
862,45
655,878
430,654
200,154
−16,145
−196,449
−325,373
−396,287
−415,08
−398,787
−366,892
−335,1
−311,884
−296,556
−283,097
−265,428
−240,766
−210,998
−181,22
−157,106
−141,595
−134,655
−134,496
−138,105
−143,283
−148,949
−154,275
−158,725
−161,756
−162,669
−161,022
−156,971
−151,025
−143,799
−135,961
−128,113
−120,77
−114,509
−109,865
−106,995
−105,765
−105,906
−107,035
−108,803
−110,966
−113,254
−115,37
−117,146
−118,498
−119,374
−119,797
−119,778
−119,274
−118,254
−116,723
−114,691
−112,203
−109,328
−106,12
−102,632
−98,913
−94,992
−90,903
−86,683
−82,36
−77,962
−73,525
−69,08
−64,681
−60,406
−56,305
−52,406
−48,716
−45,216
−41,887
−38,718
−35,686
−32,763
−29,922
−27,136
−24,387
−21,664
−18,947
−16,21
−13,414
−10,511
−7,466
−4,251
−0,842
2,776
6,622
10,71
15,044
19,621
24,436
29,49
34,784
40,318
46,086
52,078
58,281
64,686
71,288
78,075
85,021
92,097
99,267
106,497
113,759
121,019
128,233
135,369
142,398
149,301
156,083
162,727
169,207
175,488
181,518
187,264
192,716
197,862
202,699
207,228
211,443
215,357
219,003
222,379
225,457
228,193
230,499
232,324
233,651
234,467
234,784
234,604
233,905
232,665
230,863
228,451
225,384
221,603
217,022
211,623
205,427
198,479
190,874
182,681
173,92
164,62
154,796
144,445
133,598
122,301
110,599
98,599
86,43
74,22
62,119
50,22
38,574
27,223
16,173
5,436
−4,933
−14,888
−24,371
−33,289
−41,573
−49,185
−56,096
−62,345
−68,011
−73,157
−77,854
−82,156
−86,08
−89,648
−92,869
−95,739
−98,274
−100,5
−102,449
−104,195
−105,806
−107,315
−108,75
−110,097
−111,313
−112,371
−113,251
−113,929
−114,405
−114,68
−114,758
−114,665
−114,428
−114,063
−113,577
−112,962
−112,207
−111,317
−110,306
−109,2
−108,037
−106,847
−105,656
−104,496
−103,388
−102,35
−101,395
−100,525
−99,734
−99,023
−98,393
−97,85
−97,401
−97,046
−96,784
−96,613
−96,526
−96,518
−96,583
−96,711
−96,895
−97,127
−97,403
−97,719
−98,076
−98,468
−98,893
−99,347
−99,826
−100,325
−100,84
−101,365
−101,895
−102,424
−102,948
−103,463
−103,967
−104,456
−104,927
−105,378
−105,807
−106,212
−106,592
−106,946
−107,272
−107,57
−107,84
−108,081
−108,293
−108,476
−108,629
−108,752
−108,845
−108,907
−108,939
−108,94
−108,91
−108,847
−108,752
−108,625
−108,464
−108,27
−108,044
−107,786
−107,497
−107,177
−106,829
−106,453
−106,049
−105,62
−105,166
−104,688
−104,187
−103,665
−103,122
−102,559
−101,977
−101,379
−100,765
−100,136
−99,495
−98,842
−98,179
−97,509
−96,834
−96,154
−95,473
−94,792
−94,115
−93,441
−92,775
−92,116
−91,467
−90,829
−90,203
−89,589
−88,989
−88,401
−87,826
−87,263
−86,713
−86,173
−85,644
−85,123
−84,611
−84,105
−83,604
−83,108
−82,614
−82,122
−81,63
−81,135
−80,638
−80,135
−79,625
−79,107
−78,577
−78,036
−77,479
−76,907
−76,317
−75,707
−75,076
−74,423
−73,747
−73,047
−72,323
−71,574
−70,8
−70,002
−69,181
−68,336
−67,47
−66,583
−65,677
−64,753
−63,814
−62,859
−61,891
−60,912
−59,922
−58,922
−57,915
−56,902
−55,883
−54,86
−53,835
−52,807
−51,78
−50,753
−49,728
−48,705
−47,685
−46,67
−45,658
−44,652
−43,652
−42,657
−41,667
−40,684
−39,705
−38,732
−37,763
−36,798
−35,835
−34,874
−33,913
−32,95
−31,986
−31,019
−30,048
−29,072
−28,09
−27,102
−26,107
−25,105
−24,094
−23,075
−22,047
−21,011
−19,966
−18,912
−17,85
−16,78
−15,703
−14,618
−13,526
−12,428
−11,323
−10,212
−9,096
−7,975
−6,848
−5,717
−4,583
−3,447
−2,31
−1,172
−0,035
1,099
2,229
3,353
4,471
5,582
6,683
7,774
8,853
9,92
10,973
12,012
13,037
14,046
15,04
16,019
16,983
17,933
18,868
19,789
20,697
21,592
22,474
23,344
24,202
25,048
25,885
26,713
27,535
28,353
29,17
29,99
30,817
31,656
32,514
33,396
34,308
35,256
36,245
37,283
38,375
39,526
40,741
42,026
43,388
44,834
46,372
48,008
49,747
51,598
53,569
55,669
57,903
60,277
62,797
65,473
68,314
71,335
74,542
77,934
81,505
85,246
89,144
93,181
97,329
101,549
105,807
110,074
114,326
118,548
122,715
126,793
130,751
134,559
138,202
141,68
145
148,17
151,219
154,192
157,146
160,167
163,312
166,616
170,104
173,78
177,654
181,751
186,074
190,608
195,326
200,179
205,113
210,082
214,999
219,75
224,221
228,267
231,788
234,724
237,015
238,642
239,598
239,873
239,494
238,522
237,001
235,014
232,681
230,035
227,09
223,824
220,113
215,891
211,153
205,809
199,709
192,844
185,422
177,904
171,011
165,375
161,371
159,402
160,03
163,6
170,021
178,755
188,755
198,935
208,66
217,176
223,347
226,371
225,753
221,383
213,969
204,313
193,612
184,575
180,534
184,73
198,455
220,349
249,364
285,859
335,076
405,539
502,954
630,621
784,151
954,265
1133,3
1310,171
1474,594
1614,296
1710,952
1751,278
1729,057
1648,039
1523,59
1371,104
1199,728
1013,691
815,966
615,034
429,849
281,001
179,251
124,88
105,08
104,199
117,278
142,403
180,305
229,473
277,009
312,517
331,445
334,629
332,324
331,92
335,189
340,987
344,435
343,508
339,3
333,59
329,006
326,601
326,281
328,136
331,712
336,487
342,176
348,224
354,143
359,712
364,579
368,345
370,925
372,422
373,039
373,133
373,025
372,934
373,113
373,843
375,288
377,537
380,64
384,563
389,269
394,736
400,908
407,711
415,077
422,924
431,152
439,669
448,356
457,098
465,792
474,295
482,429
489,981
496,699
502,349
506,724
509,62
510,837
510,176
507,468
502,606
495,523
486,169
474,514
460,466
443,951
425,064
403,94
380,809
355,992
329,657
301,951
273,204
243,735
213,716
183,403
152,819
121,849
90,831
60,136
30,051
1,081
−26,36
−52,146
−75,812
−96,775
−115,014
−130,415
−143,067
−153,643
−162,508
−169,707
−175,654
−180,804
−185,321
−189,701
−194,034
−197,693
−200,408
−202,092
−202,433
−201,278
−198,483
−193,557
−186,438
−177,589
−167,259
−155,703
−143,218
−129,866
−115,806
−101,369
−86,634
−71,518
−56,019
−40,098
−23,807
−7,356
9,097
25,398
41,328
56,69
71,291
84,943
97,547
109,033
119,333
128,416
136,226
142,696
147,782
151,428
153,603
154,329
153,644
151,617
148,362
143,996
138,653
132,491
125,627
118,159
110,178
101,739
92,918
83,827
74,584
65,326
56,196
47,303
38,75
30,633
22,994
15,846
9,187
2,97
−2,834
−8,225
−13,213
−17,79
−21,957
−25,759
−29,28
−32,634
−35,969
−39,435
−43,161
−47,28
−51,879
−57,011
−62,722
−69,023
−75,919
−83,437
−91,595
−100,419
−109,948
−120,184
−131,071
−142,523
−154,409
−166,575
−178,9
−191,269
−203,585
−215,781
−227,795
−239,582
−251,12
−262,374
−273,304
−283,865
−293,987
−303,618
−312,753
−321,412
−329,646
−337,528
−345,108
−352,424
−359,52
−366,421
−373,142
−379,694
−386,068
−392,255
−398,259
−404,095
−409,793
−415,38
−420,863
−426,241
−431,501
−436,619
−441,582
−446,381
−451
−455,435
−459,685
−463,755
−467,661
−471,42
−475,041
−478,531
−481,891
−485,119
−488,217
−491,189
−494,037
−496,766
−499,377
−501,872
−504,253
−506,52
−508,67
−510,696
−512,592
−514,348
−515,955
−517,408
−518,7
−519,824
−520,773
−521,54
−522,116
−522,492
−522,658
−522,602
−522,313
−521,78
−520,991
−519,936
−518,61
−517,009
−515,128
−512,96
−510,495
−507,729
−504,665
−501,308
−497,669
−493,762
−489,605
−485,222
−480,654
−475,939
−471,118
−466,226
−461,282
−456,301
−451,303
−446,309
−441,341
−436,413
−431,51
−426,618
−421,73
−416,837
−411,936
−407,009
−401,996
−396,846
−391,519
−385,978
−380,225
−374,266
−368,095
−361,718
−355,166
−348,492
−341,804
−335,224
−328,836
−322,719
−316,944
−311,59
−306,803
−302,723
−299,452
−297,093
−295,715
−295,386
−296,21
−298,265
−301,555
−306,037
−311,591
−318,055
−325,321
−333,288
−341,849
−350,883
−360,208
−369,634
−379,015
−388,208
−397,049
−405,345
−412,842
−419,288
−424,535
−428,496
−431,145
−432,507
−432,56
−431,271
−428,64
−424,675
−419,412
−412,893
−405,122
−396,102
−385,905
−374,673
−362,619
−349,986
−336,942
−323,601
−310,067
−296,423
−282,78
−269,261
−255,967
−242,988
−230,445
−218,482
−207,263
−196,963
−187,679
−179,428
−172,186
−165,887
−160,493
−155,992
−152,35
−149,521
−147,452
−146,082
−145,354
−145,215
−145,556
−146,223
−147,06
−147,906
−148,645
−149,219
−149,58
−149,7
−149,558
−149,132
−148,417
−147,427
−146,168
−144,639
−142,847
−140,8
−138,541
−136,15
−133,693
−131,231
−128,808
−126,442
−124,148
−121,938
−119,81
−117,752
−115,745
−113,766
−111,8
−109,844
−107,884
−105,908
−103,892
−101,802
−99,612
−97,306
−94,872
−92,306
−89,607
−86,773
−83,815
−80,75
−77,597
−74,373
−71,093
−67,769
−64,417
−61,055
−57,704
−54,383
−51,109
−47,898
−44,765
−41,726
−38,793
−35,977
−33,289
−30,735
−28,325
−26,072
−23,985
−22,076
−20,354
−18,828
−17,508
−16,405
−15,527
−14,878
−14,465
−14,292
−14,372
−14,717
−15,333
−16,217
−17,362
−18,757
−20,384
−22,226
−24,251
−26,419
−28,695
−31,046
−33,448
−35,89
−38,348
−40,794
−43,193
−45,501
−47,69
−49,757
−51,695
−53,508
−55,219
−56,858
−58,483
−60,184
−62,017
−64,018
−66,207
−68,571
−71,11
−73,837
−76,76
−79,899
−83,257
−86,8
−90,488
−94,277
−98,067
−101,745
−105,149
−108,062
−110,32
−111,804
−112,411
−112,085
−110,767
−108,371
−104,825
−100,047
−93,951
−86,491
−77,638
−67,375
−55,757
−42,881
−28,904
−14,061
1,451
17,474
33,856
50,488
67,247
83,961
100,439
116,466
131,783
146,136
159,288
170,999
181,078
189,39
195,854
200,46
203,195
204,019
202,876
199,681
194,371
186,951
177,486
166,102
152,994
138,394
122,547
105,734
88,229
70,271
52,057
33,743
15,486
−2,529
−20,066
−36,842
−52,589
−67,075
−80,136
−91,681
−101,662
−110,081
−116,979
−122,438
−126,559
−129,418
−131,048
−131,447
−130,628
−128,634
−125,576
−121,623
−116,948
−111,741
−106,168
−100,352
−94,411
−88,435
−82,478
−76,568
−70,731
−65,017
−59,526
−54,41
−49,804
−45,836
−42,597
−40,128
−38,468
−37,605
−37,5
−38,132
−39,454
−41,424
−44,009
−47,181
−50,903
−55,137
−59,798
−64,722
−69,794
−74,944
−80,164
−85,534
−91,101
−96,888
−102,971
−109,496
−116,498
−123,765
−130,858
−137,104
−141,835
−144,588
−144,886
−142,056
−135,594
−125,464
−112,022
−96,073
−78,614
−60,31
−41,88
−24,568
−9,657
1,899
9,533
13,136
13,853
14,08
16,465
24,435
39,413
58,474
79,591
104,253
139,294
199,533
298,09
437,809
611,902
804,448
998,696
1185,345
1359,151
1513,372
1636,683
1713,134
1728,633
1680,678
1578,95
1438,889
1275,686
1097,183
905,58
706,332
511,049
336,776
200,574
110,046
61,872
47,074
55,852
81,5
120,525
167,234
212,32
248,09
269,695
278,348
281,71
284,857
289,625
295,064
296,791
293,488
286,953
279,663
274,971
274,507
277,938
284,567
293,445
303,607
314,04
323,406
330,273
333,581
332,733
327,476
317,632
302,894
283,242
259,026
230,712
198,876
164,112
126,917
88,042
48,761
10,331
−25,995
−58,829
−87,231
−110,595
−128,363
−140,393
−147,094
−149,099
−147,474
−143,667
−138,71
−133,291
−128,019
−123,226
−119,063
−115,571
−112,415
−108,993
−104,953
−100,19
−94,748
−88,84
−82,663
−76,392
−70,314
−64,797
−60,098
−56,364
−53,618
−51,772
−50,728
−50,405
−50,706
−51,514
−52,739
−54,313
−56,172
−58,274
−60,571
−62,993
−65,464
−67,92
−70,279
−72,45
−74,371
−75,976
−77,199
−78,011
−78,377
−78,248
−77,575
−76,29
−74,306
−71,564
−68,023
−63,635
−58,375
−52,21
−45,114
−37,104
−28,203
−18,451
−7,907
3,392
15,415
28,094
41,351
55,1
69,221
83,647
98,34
113,222
128,221
143,248
158,201
173,019
187,665
202,098
216,276
230,131
243,575
256,554
269,021
280,918
292,186
302,702
312,323
320,968
328,591
335,168
340,688
345,102
348,349
350,397
351,24
350,9
349,414
346,793
343,054
338,257
332,503
325,954
318,767
311,032
302,789
294,07
284,927
275,447
265,734
255,856
245,868
235,831
225,826
215,972
206,37
197,071
188,078
179,361
170,918
162,806
155,125
147,959
141,358
135,343
129,923
125,131
120,985
117,468
114,518
112,028
109,916
108,143
106,698
105,578
104,753
104,152
103,689
103,299
102,939
102,575
102,174
101,691
101,098
100,404
99,651
98,909
98,221
97,601
97,05
96,564
96,153
95,833
95,621
95,511
95,497
95,572
95,731
95,979
96,304
96,682
97,069
97,421
97,702
97,892
97,976
97,942
97,779
97,477
97,034
96,46
95,76
94,937
93,993
92,928
91,747
90,46
89,079
87,615
86,08
84,48
82,825
81,122
79,378
77,597
75,783
73,938
72,063
70,164
68,244
66,31
64,365
62,414
60,462
58,512
56,571
54,639
52,72
50,817
48,929
47,059
45,206
43,372
41,555
39,755
37,971
36,202
34,446
32,703
30,969
29,244
27,527
25,815
24,108
22,403
20,701
19
17,3
15,601
13,902
12,203
10,504
8,804
7,103
5,402
3,698
1,994
0,287
−1,421
−3,131
−4,842
−6,554
−8,267
−9,979
−11,689
−13,398
−15,102
−16,803
−18,497
−20,185
−21,864
−23,533
−25,19
−26,835
−28,467
−30,084
−31,685
−33,271
−34,839
−36,391
−37,925
−39,442
−40,942
−42,425
−43,892
−45,341
−46,775
−48,194
−49,597
−50,986
−52,36
−53,721
−55,069
−56,405
−57,728
−59,041
−60,343
−61,637
−62,921
−64,199
−65,47
−66,737
−68,001
−69,262
−70,524
−71,786
−73,05
−74,317
−75,589
−76,867
−78,151
−79,442
−80,741
−82,049
−83,364
−84,689
−86,023
−87,365
−88,716
−90,076
−91,445
−92,822
−94,207
−95,601
−97,004
−98,415
−99,834
−101,262
−102,699
−104,145
−105,598
−107,06
−108,53
−110,008
−111,493
−112,985
−114,484
−115,989
−117,499
−119,016
−120,537
−122,063
−123,594
−125,13
−126,669
−128,213
−129,762
−131,315
−132,873
−134,436
−136,004
−137,578
−139,157
−140,741
−142,33
−143,923
−145,521
−147,121
−148,724
−150,328
−151,932
−153,535
−155,135
−156,73
−158,32
−159,901
−161,474
−163,035
−164,584
−166,117
−167,634
−169,132
−170,609
−172,063
−173,493
−174,897
−176,272
−177,618
−178,932
−180,213
−181,459
−182,669
−183,843
−184,978
−186,075
−187,133
−188,153
−189,133
−190,076
−190,982
−191,852
−192,688
−193,492
−194,266
−195,012
−195,732
−196,43
−197,108
−197,77
−198,42
−199,06
−199,696
−200,331
−200,968
−201,613
−202,27
−202,942
−203,633
−204,347
−205,088
−205,858
−206,662
−207,501
−208,377
−209,294
−210,252
−211,253
−212,298
−213,387
−214,521
−215,698
−216,919
−218,181
−219,484
−220,826
−222,204
−223,615
−225,057
−226,527
−228,019
−229,529
−231,051
−232,581
−234,111
−235,634
−237,142
−238,626
−240,078
−241,491
−242,855
−244,164
−245,41
−246,586
−247,687
−248,708
−249,641
−250,482
−251,223
−251,858
−252,381
−252,784
−253,061
−253,206
−253,211
−253,072
−252,784
−252,346
−251,753
−250,999
−250,076
−248,981
−247,721
−246,305
−244,745
−243,062
−241,276
−239,416
−237,521
−235,626
−233,763
−231,96
−230,238
−228,62
−227,125
−225,775
−224,599
−223,606
−222,792
−222,145
−221,64
−221,248
−220,937
−220,655
−220,339
−219,936
−219,406
−218,726
−217,886
−216,88
−215,712
−214,39
−212,918
−211,326
−209,66
−207,972
−206,336
−204,824
−203,502
−202,459
−201,782
−201,542
−201,785
−202,539
−203,817
−205,622
−207,932
−210,713
−213,924
−217,504
−221,414
−225,592
−229,913
−234,333
−238,864
−243,577
−248,684
−254,367
−260,72
−267,919
−276,145
−285,339
−295,331
−305,627
−315,26
−323,374
−329,231
−331,969
−330,948
−325,931
−316,876
−304,495
−290,404
−276,155
−263,328
−253,835
−249,285
−250,82
−259,493
−274,483
−292,64
−310,785
−325,135
−333,566
−337,118
−335,732
−327,523
−305,969
−260,028
−180,416
−61,644
92,178
269,142
456,541
639,24
806,944
952,76
1065,349
1136,833
1159,448
1125,686
1039,186
905,958
733,696
535,699
321,192
102,569
−102,101
−278,077
−411,627
−498,226
−546,34
−566,71
−570,245
−562,002
−538,668
−499,773
−449,13
−394,113
−346,381
−311,588
−288,486
−274,741
−265,598
−259,139
−257,695
−261,558
−270,32
−282,461
−294,065
−302,492
−306,443
−305,313
−299,769
−290,761
−279,144
−266,015
−252,608
−240,08
−229,464
−221,28
−215,536
−212,031
−210,375
−210,118
−210,804
−211,898
−212,921
−213,632
−213,958
−213,911
−213,548
−212,852
−211,8
−210,429
−208,772
−206,842
−204,616
−202,026
−199,041
−195,699
−192,059
−188,191
−184,141
−179,907
−175,498
−170,931
−166,23
−161,432
−156,56
−151,61
−146,604
−141,577
−136,575
−131,67
−126,895
−122,248
−117,722
−113,299
−108,965
−104,716
−100,536
−96,396
−92,272
−88,143
−83,992
−79,811
−75,58
−71,265
−66,827
−62,215
−57,392
−52,332
−47,012
−41,414
−35,526
−29,339
−22,85
−16,072
−9,011
−1,673
5,94
13,831
21,998
30,434
39,123
48,042
57,164
66,454
75,869
85,364
94,889
104,406
113,881
123,294
132,635
141,893
151,06
160,117
169,031
177,775
186,321
194,649
202,746
210,611
218,259
225,714
233,008
240,158
247,161
253,989
260,588
266,89
272,811
278,287
283,273
287,727
291,617
294,91
297,572
299,56
300,819
301,285
300,876
299,538
297,242
293,997
289,851
284,882
279,195
272,885
266,033
258,713
250,986
242,912
234,552
225,969
217,234
208,433
199,673
191,045
182,628
174,469
166,588
158,982
151,625
144,494
137,577
130,869
124,376
118,11
112,089
106,329
100,85
95,656
90,74
86,093
81,71
77,594
73,759
70,229
67,034
64,202
61,757
59,714
58,08
56,856
56,036
55,607
55,552
55,856
56,507
57,493
58,805
60,429
62,345
64,536
66,98
69,652
72,531
75,593
78,816
82,182
85,672
89,27
92,962
96,735
100,573
104,463
108,39
112,339
116,298
120,253
124,193
128,106
131,983
135,816
139,598
143,324
146,989
150,589
154,121
157,583
160,973
164,292
167,539
170,716
173,823
176,863
179,839
182,753
185,61
188,412
191,165
193,871
196,536
199,164
201,759
204,326
206,87
209,395
211,906
214,409
216,907
219,407
221,912
224,427
226,956
229,504
232,074
234,669
237,294
239,95
242,641
245,369
248,137
250,946
253,799
256,697
259,641
262,633
265,673
268,763
271,903
275,094
278,335
281,629
284,973
288,37
291,819
295,319
298,87
302,473
306,126
309,83
313,584
317,387
321,238
325,137
329,083
333,076
337,113
341,194
345,317
349,481
353,685
357,926
362,204
366,516
370,861
375,237
379,643
384,077
388,538
393,024
397,533
402,064
406,614
411,184
415,769
420,37
424,983
429,606
434,237
438,874
443,514
448,155
452,793
457,427
462,054
466,671
471,277
475,868
480,443
485
489,536
494,052
498,544
503,014
507,459
511,88
516,275
520,645
524,989
529,307
533,598
537,863
542,102
546,316
550,505
554,673
558,821
562,953
567,074
571,189
575,303
579,422
583,551
587,697
591,865
596,061
600,289
604,556
608,867
613,23
617,651
622,136
626,69
631,321
636,034
640,836
645,736
650,738
655,849
661,077
666,43
671,92
677,563
683,367
689,336
695,47
701,768
708,223
714,826
721,556
728,376
735,249
742,135
749
755,816
762,553
769,169
775,622
781,86
787,852
793,581
799,036
804,203
809,066
813,627
817,932
822,072
826,156
830,283
834,5
838,842
843,378
848,124
853,06
858,129
863,136
867,882
872,318
876,396
880,061
883,429
886,59
889,625
892,855
896,492
900,382
904,323
907,972
910,55
911,279
909,335
903,558
893,017
877,367
856,428
830,28
799,638
765,362
728,488
690,591
653,195
617,308
583,812
553,444
526,415
502,788
482,48
464,839
449,012
434,445
420,625
407,048
393,546
380,028
366,419
352,982
340,154
328,185
317,274
307,6
299,111
291,683
285,196
279,401
274,014
268,878
263,872
258,899
253,953
249,062
244,281
239,736
235,547
231,772
228,449
225,603
223,25
221,431
220,162
219,398
219,068
219,116
219,505
220,226
221,284
222,634
224,201
225,912
227,691
229,483
231,232
232,894
234,447
235,91
237,367
238,946
240,784
243,014
245,753
249,013
252,708
256,693
260,729
264,629
268,305
271,606
274,422
276,823
278,983
281,253
284,105
287,678
291,829
296,36
300,807
304,404
306,181
304,721
298,503
286,549
268,265
243,352
212,023
174,848
132,811
87,524
40,674
−6,497
−53,007
−98,172
−141,671
−183,281
−223,058
−261,498
−299,05
−335,959
−372,4
−408,307
−443,452
−477,737
−511,054
−543,108
−573,684
−602,471
−628,917
−652,726
−673,779
−691,845
−706,749
−718,411
−726,7
−731,902
−734,908
−736,445
−737,218
−738,129
−739,916
−743,439
−749,733
−759,442
−772,674
−789,506
−809,77
−831,941
−853,48
−871,794
−883,602
−888,288
−888,275
−882,668
−868,654
−838,898
−780,48
−688,039
−564,29
−418,639
−268,522
−124,859
10,376
137,149
256,892
362,205
435,471
460,115
425,432
333,061
196,821
32,269
−148,998
−341,333
−542,228
−743,932
−932,035
−1089,88
−1203,324
−1269,797
−1295,884
−1290,326
−1264,855
−1226,764
−1182,559
−1143,209
−1114,345
−1099,176
−1096,192
−1096,027
−1093,775
−1088,292
−1081,147
−1078,503
−1082,646
−1092,396
−1106,052
−1119,895
−1131,687
−1140,949
−1146,932
−1149,67
−1149,648
−1147,099
−1142,538
−1136,786
−1130,465
−1124,226
−1118,816
−1114,476
−1111,113
−1108,547
−1106,395
−1104,246
−1101,78
−1098,601
−1094,316
−1088,763
−1081,904
−1073,785
−1064,554
−1054,317
−1043,164
−1031,234
−1018,665
−1005,576
−992,082
−978,276
−964,249
−950,118
−935,997
−921,989
−908,175
−894,608
−881,32
−868,331
−855,642
−843,243
−831,121
−819,258
−807,645
−796,281
−785,152
−774,246
−763,545
−753,025
−742,672
−732,488
−722,472
−712,637
−703,015
−693,637
−684,554
−675,828
−667,491
−659,561
−652,038
−644,903
−638,149
−631,76
−625,696
−619,923
−614,396
−609,047
−603,822
−598,641
−593,386
−587,941
−582,178
−575,956
−569,183
−561,787
−553,714
−544,937
−535,423
−525,156
−514,154
−502,433
−490,007
−476,909
−463,156
−448,802
−433,966
−418,748
−403,262
−387,634
−371,952
−356,303
−340,767
−325,398
−310,245
−295,363
−280,781
−266,547
−252,723
−239,356
−226,513
−214,227
−202,489
−191,315
−180,727
−170,729
−161,339
−152,57
−144,435
−136,991
−130,321
−124,478
−119,515
−115,463
−112,344
−110,217
−109,126
−109,122
−110,27
−112,615
−116,205
−121,122
−127,471
−135,323
−144,688
−155,452
−167,321
−179,933
−192,912
−205,816
−218,187
−229,601
−239,625
−248,143
−255,6
−262,644
−270,082
−277,848
−284,496
−288,882
−290,378
−290,863
−294,682
−302,93
−312,923
−316,097
−299,009
−254,353
−182,077
−89,893
7,45
100,257
185,091
262,563
337,644
412,578
485,988
556,142
620,136
675,454
721,573
758,71
788,729
814,758
837,186
853,022
855,776
836,87
792,174
723,569
637,445
545,106
457,329
380,587
319,442
273,056
236,177
205,328
176,84
149,58
126,219
107,347
92,448
80,101
67,48
53,409
38,031
21,798
5,617
−9,734
−23,602
−35,202
−44,085
−50,248
−53,971
−55,747
−56,068
−55,392
−54,24
−53,145
−52,517
−52,624
−53,587
−55,421
−58,112
−61,606
−65,812
−70,595
−75,831
−81,425
−87,284
−93,321
−99,453
−105,593
−111,67
−117,653
−123,464
−128,991
−134,133
−138,774
−142,849
−146,352
−149,287
−151,672
−153,541
−154,929
−155,882
−156,467
−156,724
−156,679
−156,343
−155,7
−154,769
−153,605
−152,273
−150,854
−149,409
−147,965
−146,549
−145,187
−143,891
−142,665
−141,502
−140,377
−139,282
−138,224
−137,215
−136,284
−135,439
−134,673
−133,969
−133,299
−132,639
−131,978
−131,298
−130,578
−129,807
−128,977
−128,089
−127,154
−126,174
−125,146
−124,066
−122,924
−121,715
−120,439
−119,095
