Nimi,Mikko Happonen
Syntymäaika,"20.5.2002"
Tallennuspäivä,2025-05-14 19:39:53 +0200
Luokitus,Sinusrytmi
Oireet,
Ohjelmistoversio,1.90
Laite,"Watch7,8"
Näytetaajuus,512 hertsiä


Kytkentä,I-kytkentä
Yksikkö,µV

−63,124
−61,183
−59,151
−56,939
−54,609
−52,251
−49,75
−47,03
−44,226
−41,456
−39,077
−37
−34,143
−30,447
−26,748
−24,671
−27,182
−33,93
−41,586
−46,646
−44,662
−35,757
−24,328
−13,732
−7,616
−6,618
−7,781
−9,535
−10,61
−10,359
−9,881
−9,604
−9,387
−9,301
−9,096
−8,558
−7,832
−7,058
−6,275
−5,561
−4,953
−4,393
−3,863
−3,37
−2,885
−2,389
−1,882
−1,344
−0,767
−0,166
0,452
1,082
1,718
2,367
3,033
3,717
4,42
5,142
5,882
6,639
7,413
8,205
9,014
9,838
10,676
11,527
12,393
13,272
14,162
15,062
15,968
16,878
17,79
18,702
19,614
20,524
21,43
22,333
23,23
24,122
25,009
25,889
26,764
27,632
28,494
29,351
30,202
31,046
31,884
32,717
33,546
34,371
35,189
36,006
36,826
37,653
38,493
39,343
40,192
41,049
41,922
42,793
43,649
44,479
45,267
46,025
46,782
47,521
48,215
48,933
49,759
50,641
51,583
52,598
53,503
54,786
56,922
59,227
61,493
62,463
60,637
57,672
54,671
53,281
55,763
60,113
64,632
68,156
68,762
67,824
66,733
65,798
65,869
66,451
66,912
67,371
67,749
68,087
68,514
68,945
69,315
69,646
69,944
70,204
70,429
70,625
70,799
70,966
71,142
71,326
71,513
71,709
71,917
72,137
72,374
72,627
72,895
73,182
73,489
73,82
74,175
74,555
74,959
75,387
75,84
76,317
76,813
77,328
77,859
78,408
78,979
79,572
80,18
80,794
81,399
81,978
82,511
82,969
83,315
83,514
83,536
83,354
82,957
82,325
81,436
80,265
78,781
76,969
74,828
72,359
69,568
66,479
63,124
59,565
55,89
52,172
48,463
44,798
41,188
37,65
34,205
30,862
27,631
24,505
21,46
18,489
15,586
12,714
9,811
6,769
3,442
−0,269
−4,424
−9,052
−14,143
−19,706
−25,73
−32,142
−38,887
−45,937
−53,306
−61,14
−69,587
−78,705
−88,559
−99,205
−110,571
−122,583
−135,042
−147,449
−159,329
−170,27
−179,791
−187,539
−193,263
−196,682
−197,807
−197,127
−195,193
−192,704
−190,537
−189,401
−190,157
−193,799
−200,896
−211,622
−225,945
−243,32
−263,021
−283,627
−302,14
−315,297
−319,987
−314,776
−300,929
−279,404
−249,484
−207,106
−145,051
−56,832
60,537
204,044
365,827
534,519
697,039
842,166
958,808
1037,721
1073,841
1063,451
1006,929
908,546
772,324
605,231
417,052
219,268
28,253
−139,161
−271,103
−362,898
−419,696
−453,057
−473,521
−485,689
−487,306
−472,562
−438,733
−390,498
−338,689
−295,086
−266,662
−253,254
−249,009
−247,632
−246,055
−244,36
−244,85
−248,91
−255,73
−263,364
−269,419
−272,34
−271,649
−267,591
−260,887
−252,292
−242,56
−232,493
−222,799
−214,132
−207,066
−201,802
−198,265
−196,252
−195,402
−195,337
−195,726
−196,235
−196,562
−196,554
−196,149
−195,314
−194,079
−192,463
−190,476
−188,158
−185,536
−182,61
−179,363
−175,774
−171,837
−167,578
−163,036
−158,237
−153,198
−147,929
−142,444
−136,772
−130,936
−124,948
−118,814
−112,535
−106,13
−99,626
−93,057
−86,458
−79,844
−73,216
−66,569
−59,894
−53,179
−46,412
−39,57
−32,624
−25,553
−18,334
−10,948
−3,373
4,425
12,482
20,829
29,5
38,516
47,886
57,612
67,68
78,062
88,731
99,653
110,795
122,134
133,644
145,291
157,041
168,852
180,686
192,514
204,304
216,026
227,667
239,228
250,731
262,23
273,764
285,362
297,046
308,815
320,663
332,582
344,547
356,524
368,473
380,341
392,076
403,635
414,936
425,867
436,284
445,994
454,815
462,58
469,12
474,288
477,961
480,032
480,427
479,105
476,02
471,137
464,421
455,823
445,341
433,022
418,945
403,253
386,112
367,695
348,207
327,862
306,85
285,352
263,527
241,509
219,46
197,553
175,971
154,931
134,622
115,21
96,85
79,643
63,645
48,892
35,366
23,029
11,851
1,804
−7,141
−15,005
−21,842
−27,728
−32,75
−37,035
−40,716
−43,93
−46,832
−49,54
−52,135
−54,678
−57,197
−59,695
−62,188
−64,684
−67,185
−69,7
−72,22
−74,733
−77,227
−79,666
−82,002
−84,179
−86,127
−87,796
−89,161
−90,211
−90,953
−91,406
−91,586
−91,521
−91,245
−90,788
−90,179
−89,444
−88,605
−87,691
−86,737
−85,782
−84,869
−84,032
−83,292
−82,666
−82,166
−81,797
−81,561
−81,455
−81,469
−81,596
−81,829
−82,165
−82,601
−83,132
−83,751
−84,45
−85,22
−86,052
−86,939
−87,876
−88,853
−89,866
−90,908
−91,976
−93,067
−94,178
−95,303
−96,44
−97,583
−98,729
−99,876
−101,019
−102,157
−103,288
−104,41
−105,523
−106,627
−107,723
−108,812
−109,896
−110,975
−112,052
−113,131
−114,212
−115,298
−116,392
−117,496
−118,613
−119,745
−120,895
−122,064
−123,256
−124,473
−125,715
−126,985
−128,283
−129,611
−130,968
−132,355
−133,772
−135,216
−136,689
−138,186
−139,708
−141,251
−142,814
−144,392
−145,983
−147,583
−149,188
−150,794
−152,397
−153,992
−155,575
−157,141
−158,686
−160,206
−161,696
−163,151
−164,568
−165,943
−167,271
−168,548
−169,772
−170,939
−172,045
−173,09
−174,069
−174,981
−175,826
−176,6
−177,304
−177,938
−178,5
−178,992
−179,414
−179,766
−180,051
−180,27
−180,425
−180,517
−180,55
−180,525
−180,446
−180,315
−180,134
−179,908
−179,639
−179,331
−178,986
−178,608
−178,2
−177,766
−177,307
−176,829
−176,333
−175,823
−175,301
−174,77
−174,232
−173,69
−173,146
−172,601
−172,059
−171,519
−170,984
−170,454
−169,931
−169,414
−168,905
−168,404
−167,91
−167,424
−166,945
−166,473
−166,007
−165,547
−165,091
−164,64
−164,192
−163,745
−163,3
−162,854
−162,407
−161,957
−161,504
−161,047
−160,583
−160,113
−159,635
−159,147
−158,65
−158,142
−157,622
−157,09
−156,544
−155,985
−155,412
−154,824
−154,223
−153,607
−152,978
−152,335
−151,68
−151,014
−150,338
−149,652
−148,959
−148,26
−147,558
−146,853
−146,147
−145,443
−144,743
−144,048
−143,36
−142,681
−142,013
−141,357
−140,716
−140,09
−139,481
−138,892
−138,323
−137,777
−137,254
−136,757
−136,287
−135,845
−135,431
−135,047
−134,693
−134,369
−134,075
−133,811
−133,574
−133,364
−133,179
−133,017
−132,875
−132,749
−132,636
−132,533
−132,435
−132,339
−132,24
−132,135
−132,019
−131,888
−131,738
−131,564
−131,362
−131,126
−130,852
−130,534
−130,168
−129,747
−129,265
−128,715
−128,092
−127,389
−126,603
−125,726
−124,754
−123,683
−122,511
−121,235
−119,853
−118,364
−116,763
−115,05
−113,226
−111,289
−109,24
−107,079
−104,807
−102,424
−99,937
−97,35
−94,665
−91,883
−89,002
−86,026
−82,969
−79,844
−76,667
−73,461
−70,25
−67,067
−63,955
−60,949
−58,08
−55,373
−52,846
−50,521
−48,427
−46,588
−45,027
−43,759
−42,782
−42,091
−41,675
−41,504
−41,529
−41,692
−41,913
−42,135
−42,326
−42,46
−42,524
−42,504
−42,384
−42,159
−41,837
−41,418
−40,91
−40,331
−39,704
−39,097
−38,606
−38,322
−38,341
−38,722
−39,478
−40,628
−42,159
−44,021
−46,185
−48,64
−51,405
−54,593
−58,333
−62,681
−67,706
−73,47
−79,903
−86,868
−94,115
−101,209
−107,753
−113,49
−118,142
−121,442
−123,304
−123,714
−122,796
−120,951
−118,552
−115,824
−113,083
−110,721
−109,034
−108,377
−109,052
−111,175
−114,947
−120,634
−128,407
−137,584
−146,437
−153,02
−155,078
−152,027
−145,587
−135,93
−121,687
−97,986
−55,152
13,816
112,225
238,746
385,013
543,295
706,608
866,933
1016,85
1143,433
1231,349
1268,513
1247,771
1173,755
1058,361
913,862
751,908
577,933
396,028
215,797
48,469
−92,752
−197,196
−264,67
−299,606
−308,246
−299,092
−276,347
−244,343
−210,501
−178,649
−151,836
−130,515
−110,022
−88,445
−66,214
−45,042
−29,186
−20,547
−18,275
−20,677
−25,294
−30,554
−35,897
−40,85
−44,818
−47,035
−47,071
−45,096
−41,471
−36,584
−30,686
−23,869
−16,541
−9,458
−3,227
1,935
6,051
9,267
11,622
12,974
13,387
13,265
13,092
13,191
13,68
14,527
15,714
17,355
19,513
22,098
24,935
27,861
30,816
33,841
36,99
40,266
43,653
47,139
50,735
54,479
58,392
62,478
66,728
71,127
75,675
80,385
85,267
90,32
95,526
100,848
106,262
111,76
117,341
123,016
128,795
134,685
140,699
146,858
153,183
159,7
166,429
173,388
180,595
188,067
195,826
203,896
212,291
221,008
230,034
239,34
248,898
258,68
268,655
278,792
289,055
299,405
309,802
320,202
330,565
340,856
351,038
361,074
370,943
380,639
390,175
399,588
408,907
418,15
427,327
436,435
445,464
454,405
463,239
471,938
480,473
488,804
496,895
504,719
512,212
519,286
525,821
531,655
536,63
540,604
543,438
545,01
545,219
543,976
541,214
536,891
530,964
523,397
514,145
503,153
490,406
475,931
459,804
442,161
423,159
402,967
381,773
359,775
337,153
314,083
290,73
267,243
243,788
220,543
197,71
175,52
154,185
133,895
114,793
96,966
80,466
65,311
51,492
38,973
27,719
17,692
8,846
1,142
−5,485
−11,116
−15,867
−19,89
−23,346
−26,405
−29,204
−31,844
−34,399
−36,917
−39,428
−41,942
−44,463
−46,988
−49,517
−52,048
−54,578
−57,095
−59,568
−61,946
−64,164
−66,146
−67,839
−69,209
−70,239
−70,927
−71,283
−71,324
−71,08
−70,585
−69,874
−68,973
−67,908
−66,7
−65,381
−63,986
−62,556
−61,137
−59,763
−58,46
−57,248
−56,141
−55,148
−54,272
−53,512
−52,858
−52,305
−51,849
−51,487
−51,22
−51,044
−50,954
−50,945
−51,009
−51,141
−51,335
−51,588
−51,892
−52,244
−52,639
−53,076
−53,553
−54,067
−54,614
−55,19
−55,792
−56,414
−57,054
−57,708
−58,371
−59,04
−59,713
−60,387
−61,062
−61,736
−62,408
−63,077
−63,742
−64,404
−65,061
−65,714
−66,362
−67,005
−67,641
−68,271
−68,894
−69,51
−70,119
−70,72
−71,313
−71,898
−72,475
−73,043
−73,603
−74,155
−74,699
−75,234
−75,761
−76,281
−76,793
−77,298
−77,796
−78,288
−78,774
−79,253
−79,726
−80,192
−80,651
−81,104
−81,55
−81,99
−82,423
−82,851
−83,274
−83,693
−84,108
−84,522
−84,936
−85,349
−85,765
−86,184
−86,607
−87,037
−87,475
−87,921
−88,378
−88,846
−89,326
−89,819
−90,325
−90,845
−91,378
−91,926
−92,488
−93,063
−93,653
−94,256
−94,872
−95,501
−96,142
−96,795
−97,459
−98,133
−98,816
−99,506
−100,203
−100,904
−101,608
−102,313
−103,018
−103,719
−104,415
−105,103
−105,782
−106,449
−107,101
−107,736
−108,354
−108,951
−109,526
−110,08
−110,609
−111,115
−111,597
−112,055
−112,489
−112,899
−113,286
−113,652
−113,996
−114,32
−114,626
−114,914
−115,187
−115,446
−115,693
−115,93
−116,158
−116,38
−116,597
−116,812
−117,026
−117,244
−117,467
−117,697
−117,939
−118,194
−118,465
−118,756
−119,068
−119,405
−119,767
−120,156
−120,573
−121,019
−121,493
−121,996
−122,526
−123,082
−123,664
−124,268
−124,892
−125,534
−126,19
−126,857
−127,531
−128,209
−128,886
−129,558
−130,22
−130,868
−131,498
−132,105
−132,683
−133,225
−133,727
−134,182
−134,583
−134,921
−135,19
−135,38
−135,485
−135,497
−135,41
−135,218
−134,915
−134,496
−133,958
−133,301
−132,52
−131,613
−130,575
−129,404
−128,097
−126,655
−125,075
−123,358
−121,5
−119,505
−117,376
−115,121
−112,743
−110,244
−107,625
−104,891
−102,055
−99,135
−96,153
−93,128
−90,086
−87,059
−84,091
−81,225
−78,495
−75,929
−73,542
−71,35
−69,373
−67,629
−66,137
−64,9
−63,912
−63,165
−62,652
−62,362
−62,269
−62,334
−62,499
−62,71
−62,935
−63,151
−63,349
−63,531
−63,718
−63,938
−64,227
−64,618
−65,124
−65,768
−66,596
−67,639
−68,882
−70,265
−71,726
−73,266
−74,974
−76,952
−79,181
−81,618
−84,327
−87,547
−91,613
−96,739
−102,839
−109,613
−116,933
−124,776
−132,952
−141,029
−148,301
−154,053
−158,059
−160,556
−161,609
−161,138
−159,19
−155,865
−151,609
−147,169
−142,894
−138,74
−134,924
−131,845
−129,936
−129,932
−132,435
−137,68
−145,98
−157,728
−172,332
−188,16
−203,35
−215,125
−221,573
−222,915
−218,321
−206,289
−183,735
−143,228
−78,827
12,366
131,119
270,976
424,31
585,129
743,908
893,156
1023,36
1119,691
1172,206
1173,68
1122,205
1026,285
894,641
736,422
561,638
377,054
193,678
25,634
−114,59
−216,968
−281,098
−315,01
−328,775
−331,773
−327,144
−312,618
−287,563
−253,881
−216,653
−183,812
−158,907
−140,944
−127,974
−116,354
−104,927
−95,79
−89,828
−87,437
−88,198
−90,053
−91,772
−92,867
−92,806
−91,383
−88,413
−83,823
−77,864
−71,004
−63,698
−56,345
−49,358
−43,162
−38,173
−34,559
−32,235
−30,971
−30,459
−30,457
−30,772
−31,184
−31,456
−31,431
−31,046
−30,3
−29,254
−27,948
−26,382
−24,556
−22,465
−20,091
−17,438
−14,52
−11,345
−7,919
−4,248
−0,333
3,809
8,152
12,68
17,383
22,258
27,306
32,505
37,826
43,23
48,676
54,142
59,623
65,117
70,631
76,173
81,753
87,392
93,117
98,951
104,917
111,034
117,326
123,82
130,546
137,536
144,821
152,419
160,333
168,559
177,075
185,856
194,876
204,108
213,522
223,091
232,783
242,564
252,398
262,249
272,087
281,882
291,602
301,232
310,772
320,24
329,679
339,128
348,617
358,169
367,795
377,49
387,244
397,04
406,846
416,626
426,334
435,92
445,338
454,516
463,356
471,725
479,454
486,363
492,285
497,054
500,516
502,554
503,068
501,982
499,249
494,831
488,691
480,809
471,154
459,71
446,508
431,615
415,15
397,278
378,172
358,032
337,067
315,458
293,371
270,964
248,37
225,729
203,198
180,928
159,096
137,896
117,499
98,06
79,687
62,429
46,312
31,327
17,438
4,621
−7,147
−17,892
−27,634
−36,407
−44,26
−51,251
−57,467
−63,037
−68,093
−72,775
−77,196
−81,424
−85,507
−89,47
−93,321
−97,064
−100,703
−104,232
−107,652
−110,964
−114,163
−117,245
−120,189
−122,947
−125,463
−127,67
−129,518
−130,985
−132,062
−132,749
−133,062
−133,019
−132,648
−131,987
−131,065
−129,911
−128,549
−127
−125,291
−123,458
−121,543
−119,588
−117,629
−115,693
−113,801
−111,971
−110,214
−108,538
−106,945
−105,429
−103,988
−102,624
−101,338
−100,133
−99,009
−97,965
−97
−96,111
−95,295
−94,55
−93,874
−93,264
−92,719
−92,235
−91,813
−91,453
−91,152
−90,91
−90,723
−90,588
−90,502
−90,463
−90,465
−90,505
−90,581
−90,688
−90,823
−90,985
−91,171
−91,378
−91,605
−91,851
−92,112
−92,388
−92,678
−92,979
−93,29
−93,609
−93,935
−94,265
−94,599
−94,935
−95,271
−95,606
−95,939
−96,268
−96,592
−96,911
−97,223
−97,527
−97,822
−98,108
−98,384
−98,65
−98,905
−99,151
−99,387
−99,613
−99,83
−100,038
−100,237
−100,428
−100,611
−100,786
−100,954
−101,115
−101,271
−101,421
−101,567
−101,71
−101,849
−101,987
−102,124
−102,26
−102,397
−102,536
−102,677
−102,82
−102,968
−103,121
−103,278
−103,442
−103,613
−103,789
−103,973
−104,162
−104,358
−104,558
−104,762
−104,97
−105,18
−105,39
−105,6
−105,809
−106,014
−106,214
−106,408
−106,595
−106,772
−106,938
−107,092
−107,232
−107,357
−107,466
−107,558
−107,632
−107,687
−107,723
−107,738
−107,733
−107,707
−107,658
−107,588
−107,496
−107,382
−107,246
−107,09
−106,914
−106,72
−106,509
−106,283
−106,044
−105,794
−105,535
−105,271
−105,003
−104,735
−104,47
−104,21
−103,96
−103,722
−103,499
−103,295
−103,113
−102,954
−102,822
−102,719
−102,647
−102,609
−102,605
−102,638
−102,708
−102,818
−102,969
−103,161
−103,394
−103,671
−103,99
−104,353
−104,758
−105,205
−105,693
−106,22
−106,786
−107,387
−108,022
−108,687
−109,379
−110,095
−110,829
−111,578
−112,337
−113,1
−113,862
−114,617
−115,36
−116,085
−116,787
−117,461
−118,101
−118,701
−119,256
−119,762
−120,214
−120,605
−120,931
−121,187
−121,367
−121,468
−121,482
−121,405
−121,23
−120,952
−120,568
−120,073
−119,463
−118,734
−117,886
−116,917
−115,827
−114,616
−113,285
−111,834
−110,264
−108,577
−106,774
−104,858
−102,829
−100,691
−98,445
−96,098
−93,654
−91,115
−88,486
−85,767
−82,964
−80,088
−77,152
−74,174
−71,176
−68,181
−65,223
−62,34
−59,568
−56,938
−54,482
−52,224
−50,192
−48,414
−46,907
−45,692
−44,78
−44,169
−43,849
−43,806
−44,001
−44,389
−44,917
−45,513
−46,127
−46,718
−47,24
−47,665
−47,961
−48,103
−48,106
−47,981
−47,739
−47,409
−47,013
−46,58
−46,209
−46,007
−46,023
−46,336
−46,969
−47,91
−49,246
−51,054
−53,315
−55,978
−59,036
−62,478
−66,406
−71,005
−76,276
−82,16
−88,657
−95,778
−103,506
−111,766
−120,3
−128,613
−136,265
−142,903
−148,126
−151,563
−152,884
−151,795
−148,233
−142,561
−135,389
−127,357
−119,25
−111,89
−106,121
−102,933
−103,135
−107,191
−115,227
−127,077
−142,375
−159,753
−176,5
−189,535
−195,638
−193,505
−184,662
−170,036
−148,813
−116,349
−64,118
15,617
126,921
267,741
431,344
607,278
782,725
945,004
1078,333
1168,6
1207,308
1190,737
1125,748
1024,095
895,905
751,08
594,104
428,027
261,08
102,794
−35,059
−141,823
−215,807
−260,822
−283,382
−291,313
−287,316
−270,403
−241,945
−205,086
−165,54
−131,695
−107,127
−90,599
−80,233
−72,299
−65,435
−61,66
−61,359
−64,224
−69,32
−74,214
−77,406
−78,448
−76,939
−72,867
−66,632
−58,742
−49,824
−40,64
−31,801
−23,709
−16,799
−11,462
−7,785
−5,67
−4,877
−5,032
−5,807
−6,95
−8,198
−9,305
−10,124
−10,564
−10,591
−10,229
−9,498
−8,414
−6,991
−5,241
−3,153
−0,706
2,098
5,245
8,705
12,44
16,425
20,643
25,068
29,669
34,42
39,303
44,307
49,436
54,674
59,997
65,372
70,763
76,152
81,538
86,926
92,325
97,749
103,21
108,73
114,338
120,057
125,906
131,906
138,073
144,437
151,03
157,881
165,022
172,474
180,242
188,328
196,718
205,384
214,299
223,431
232,746
242,221
251,828
261,537
271,314
281,121
290,918
300,677
310,366
319,955
329,431
338,792
348,058
357,275
366,484
375,713
384,984
394,303
403,658
413,041
422,429
431,788
441,082
450,259
459,27
468,07
476,589
484,731
492,366
499,324
505,429
510,521
514,44
517,042
518,217
517,873
515,939
512,378
507,154
500,24
491,614
481,246
469,118
455,256
439,725
422,642
404,166
384,466
363,734
342,175
319,965
297,271
274,247
251,027
227,756
204,591
181,694
159,25
137,468
116,533
96,613
77,829
60,243
43,892
28,777
14,872
2,156
−9,391
−19,797
−29,085
−37,293
−44,481
−50,714
−56,098
−60,775
−64,896
−68,618
−72,072
−75,34
−78,485
−81,544
−84,535
−87,472
−90,362
−93,206
−96,005
−98,76
−101,466
−104,118
−106,687
−109,123
−111,361
−113,33
−114,977
−116,275
−117,211
−117,787
−118,014
−117,912
−117,511
−116,848
−115,956
−114,865
−113,601
−112,186
−110,651
−109,035
−107,38
−105,731
−104,125
−102,586
−101,138
−99,793
−98,564
−97,453
−96,461
−95,58
−94,805
−94,133
−93,564
−93,098
−92,731
−92,461
−92,282
−92,187
−92,172
−92,232
−92,361
−92,554
−92,807
−93,114
−93,473
−93,881
−94,335
−94,829
−95,358
−95,917
−96,501
−97,104
−97,721
−98,347
−98,977
−99,607
−100,235
−100,856
−101,47
−102,073
−102,663
−103,24
−103,803
−104,35
−104,881
−105,394
−105,891
−106,37
−106,831
−107,274
−107,699
−108,106
−108,495
−108,868
−109,224
−109,566
−109,893
−110,206
−110,507
−110,798
−111,079
−111,353
−111,62
−111,883
−112,142
−112,401
−112,659
−112,919
−113,182
−113,449
−113,721
−113,998
−114,281
−114,571
−114,867
−115,171
−115,483
−115,802
−116,128
−116,463
−116,805
−117,155
−117,512
−117,876
−118,246
−118,623
−119,004
−119,389
−119,778
−120,168
−120,56
−120,951
−121,341
−121,726
−122,106
−122,48
−122,844
−123,196
−123,536
−123,862
−124,17
−124,46
−124,73
−124,978
−125,202
−125,402
−125,576
−125,722
−125,84
−125,929
−125,987
−126,015
−126,011
−125,974
−125,905
−125,803
−125,669
−125,501
−125,301
−125,069
−124,805
−124,51
−124,185
−123,831
−123,449
−123,04
−122,606
−122,148
−121,668
−121,167
−120,648
−120,113
−119,562
−118,998
−118,422
−117,836
−117,241
−116,64
−116,032
−115,42
−114,804
−114,187
−113,568
−112,949
−112,33
−111,713
−111,099
−110,488
−109,88
−109,277
−108,68
−108,087
−107,501
−106,921
−106,348
−105,783
−105,225
−104,674
−104,132
−103,597
−103,071
−102,553
−102,043
−101,541
−101,048
−100,563
−100,088
−99,622
−99,166
−98,72
−98,287
−97,865
−97,457
−97,064
−96,686
−96,326
−95,983
−95,66
−95,358
−95,078
−94,821
−94,589
−94,382
−94,202
−94,05
−93,926
−93,83
−93,764
−93,726
−93,718
−93,74
−93,791
−93,871
−93,981
−94,119
−94,285
−94,479
−94,701
−94,948
−95,22
−95,514
−95,83
−96,164
−96,515
−96,879
−97,254
−97,636
−98,021
−98,405
−98,784
−99,154
−99,51
−99,847
−100,16
−100,445
−100,698
−100,913
−101,086
−101,214
−101,291
−101,315
−101,282
−101,187
−101,027
−100,797
−100,495
−100,116
−99,656
−99,111
−98,475
−97,745
−96,919
−95,993
−94,965
−93,832
−92,595
−91,253
−89,807
−88,259
−86,608
−84,855
−83,002
−81,053
−79,007
−76,869
−74,64
−72,322
−69,92
−67,438
−64,88
−62,25
−59,549
−56,777
−53,939
−51,047
−48,112
−45,15
−42,181
−39,227
−36,317
−33,49
−30,777
−28,208
−25,81
−23,6
−21,605
−19,849
−18,353
−17,138
−16,214
−15,577
−15,219
−15,127
−15,269
−15,613
−16,107
−16,683
−17,294
−17,9
−18,472
−18,996
−19,451
−19,82
−20,105
−20,311
−20,457
−20,578
−20,699
−20,856
−21,107
−21,505
−22,122
−23,045
−24,335
−26,029
−28,139
−30,656
−33,563
−36,832
−40,42
−44,254
−48,231
−52,281
−56,397
−60,634
−65,119
−69,982
−75,3
−81,18
−87,774
−95,124
−103,16
−111,572
−119,739
−127,023
−132,854
−136,637
−137,837
−136,099
−131,277
−123,727
−114,378
−104,332
−94,839
−87,225
−82,674
−82,298
−87,016
−97,124
−112,335
−131,436
−151,734
−169,933
−182,68
−188,07
−186,737
−179,826
−167,086
−143,697
−100,674
−29,271
76,058
212,211
369,708
538,338
706,839
867,61
1013,454
1131,788
1211,046
1241,139
1216,643
1143,917
1033,368
895,414
741,158
576,063
404,966
237,367
82,142
−50,34
−151,044
−219,879
−260,901
−280,445
−286,805
−282,332
−265,226
−235,407
−193,536
−145,299
−101,634
−70,189
−54,173
−52,339
−57,727
−63,458
−66,561
−65,753
−62,123
−58,862
−56,853
−56,347
−57,616
−58,611
−58,185
−56,115
−51,981
−46,792
−41,473
−36,219
−31,375
−27,033
−23,249
−20,342
−18,383
−17,19
−16,555
−16,245
−16,085
−15,968
−15,739
−15,188
−14,179
−12,686
−10,75
−8,468
−5,915
−3,127
−0,155
2,932
6,072
9,22
12,368
15,553
18,811
22,161
25,614
29,162
32,801
36,544
40,408
44,408
48,558
52,859
57,32
61,959
66,79
71,818
77,026
82,379
87,849
93,427
99,113
104,916
110,844
116,898
123,09
129,442
135,98
142,732
149,718
156,946
164,426
172,173
180,2
188,526
197,148
206,044
215,191
224,562
234,134
243,892
253,805
263,832
273,932
284,061
294,182
304,27
314,299
324,237
334,075
343,815
353,483
363,134
372,812
382,546
392,356
402,248
412,223
422,28
432,401
442,559
452,717
462,83
472,853
482,736
492,389
501,691
510,481
518,561
525,739
531,835
536,679
540,111
541,993
542,214
540,693
537,368
532,186
525,098
516,049
505,005
491,978
477,027
460,267
441,858
421,987
400,855
378,682
355,696
332,11
308,116
283,885
259,588
235,401
211,521
188,166
165,541
143,828
123,19
103,737
85,539
68,63
53,004
38,627
25,447
13,414
2,486
−7,378
−16,231
−24,142
−31,202
−37,535
−43,266
−48,528
−53,465
−58,187
−62,777
−67,293
−71,759
−76,179
−80,551
−84,867
−89,119
−93,301
−97,4
−101,398
−105,274
−108,987
−112,489
−115,725
−118,624
−121,136
−123,233
−124,899
−126,141
−126,973
−127,414
−127,492
−127,243
−126,696
−125,885
−124,838
−123,579
−122,141
−120,562
−118,881
−117,145
−115,391
−113,645
−111,93
−110,262
−108,65
−107,104
−105,627
−104,214
−102,864
−101,58
−100,36
−99,211
−98,134
−97,127
−96,188
−95,314
−94,504
−93,755
−93,067
−92,435
−91,861
−91,34
−90,875
−90,465
−90,109
−89,806
−89,553
−89,348
−89,188
−89,069
−88,991
−88,949
−88,94
−88,964
−89,018
−89,101
−89,212
−89,35
−89,514
−89,703
−89,916
−90,152
−90,412
−90,693
−90,996
−91,319
−91,662
−92,025
−92,406
−92,806
−93,223
−93,657
−94,108
−94,575
−95,058
−95,556
−96,068
−96,595
−97,134
−97,686
−98,25
−98,824
−99,409
−100,003
−100,606
−101,215
−101,829
−102,448
−103,069
−103,69
−104,311
−104,929
−105,542
−106,15
−106,751
−107,343
−107,926
−108,496
−109,054
−109,598
−110,126
−110,638
−111,131
−111,606
−112,06
−112,493
−112,904
−113,291
−113,655
−113,994
−114,308
−114,596
−114,858
−115,094
−115,303
−115,485
−115,641
−115,77
−115,875
−115,954
−116,009
−116,041
−116,05
−116,038
−116,004
−115,951
−115,879
−115,789
−115,682
−115,56
−115,423
−115,274
−115,113
−114,941
−114,761
−114,573
−114,378
−114,179
−113,977
−113,772
−113,568
−113,364
−113,164
−112,966
−112,774
−112,588
−112,409
−112,238
−112,076
−111,922
−111,778
−111,644
−111,519
−111,405
−111,3
−111,205
−111,12
−111,045
−110,978
−110,92
−110,87
−110,828
−110,792
−110,763
−110,74
−110,721
−110,707
−110,695
−110,687
−110,679
−110,672
−110,665
−110,655
−110,643
−110,627
−110,606
−110,579
−110,546
−110,505
−110,457
−110,4
−110,335
−110,261
−110,179
−110,087
−109,986
−109,877
−109,76
−109,635
−109,504
−109,367
−109,226
−109,08
−108,933
−108,784
−108,635
−108,487
−108,341
−108,2
−108,064
−107,935
−107,815
−107,705
−107,609
−107,526
−107,459
−107,41
−107,38
−107,371
−107,383
−107,417
−107,475
−107,558
−107,666
−107,801
−107,962
−108,151
−108,367
−108,61
−108,88
−109,176
−109,496
−109,839
−110,202
−110,584
−110,983
−111,397
−111,822
−112,256
−112,696
−113,139
−113,58
−114,016
−114,441
−114,852
−115,243
−115,61
−115,947
−116,252
−116,517
−116,74
−116,915
−117,038
−117,105
−117,11
−117,048
−116,913
−116,701
−116,407
−116,026
−115,553
−114,984
−114,315
−113,544
−112,67
−111,691
−110,606
−109,413
−108,115
−106,711
−105,201
−103,585
−101,861
−100,031
−98,097
−96,061
−93,93
−91,707
−89,396
−87,005
−84,544
−82,02
−79,443
−76,817
−74,141
−71,424
−68,683
−65,937
−63,215
−60,542
−57,941
−55,441
−53,079
−50,881
−48,869
−47,051
−45,423
−43,987
−42,756
−41,749
−40,995
−40,513
−40,302
−40,357
−40,668
−41,218
−41,99
−42,95
−44,045
−45,246
−46,547
−47,97
−49,564
−51,365
−53,387
−55,633
−58,091
−60,743
−63,585
−66,602
−69,778
−73,116
−76,615
−80,285
−84,159
−88,225
−92,43
−96,702
−100,911
−104,915
−108,628
−112,014
−115,102
−118,019
−120,899
−123,821
−126,92
−130,357
−134,19
−138,404
−142,829
−147,055
−150,733
−153,709
−155,789
−156,764
−156,547
−154,975
−152,084
−148,4
−144,364
−140,152
−136,076
−132,446
−130,011
−130,302
−134,403
−142,266
−152,106
−161,327
−168,102
−172,019
−175,638
−181,418
−190,111
−201,242
−209,711
−209,479
−194,308
−155,969
−90,118
6,259
133,71
286,38
458,363
640,2
818,993
982,811
1115,526
1202,749
1236,27
1213,228
1141,136
1032,862
900,024
751,254
589,356
415,205
234,579
59,323
−94,215
−211,098
−286,29
−324,248
−335,956
−332,671
−317,779
−291,501
−253,369
−205,87
−159,427
−122,763
−100,372
−91,728
−88,945
−86,372
−82,194
−76,9
−74,188
−75,42
−79,406
−84,622
−88,75
−90,572
−90,002
−86,916
−81,669
−74,884
−67,078
−58,875
−50,873
−43,468
−37,048
−32,006
−28,443
−26,223
−25,12
−24,782
−24,878
−25,194
−25,492
−25,533
−25,197
−24,418
−23,185
−21,567
−19,607
−17,332
−14,79
−12,012
−9,014
−5,816
−2,408
1,21
5,014
8,993
13,132
17,418
21,845
26,398
31,064
35,843
40,736
45,744
50,871
56,11
61,446
66,867
72,345
77,866
83,43
89,037
94,699
100,43
106,242
112,153
118,187
124,365
130,708
137,239
143,981
150,959
158,198
165,724
173,564
181,733
190,234
199,057
208,179
217,574
227,217
237,081
247,142
257,373
267,74
278,207
288,737
299,292
309,841
320,351
330,787
341,131
351,379
361,546
371,673
381,794
391,929
402,091
412,28
422,48
432,676
442,843
452,942
462,933
472,764
482,385
491,751
500,794
509,414
517,486
524,84
531,306
536,729
540,958
543,853
545,308
545,234
543,562
540,262
535,308
528,672
520,334
510,267
498,454
484,929
469,759
453,054
434,966
415,651
395,288
374,082
352,206
329,819
307,071
284,081
260,974
237,906
215,029
192,514
170,558
149,326
128,966
109,614
91,347
74,213
58,23
43,37
29,614
16,955
5,375
−5,131
−14,579
−23,021
−30,515
−37,135
−43,002
−48,236
−52,964
−57,328
−61,427
−65,326
−69,075
−72,687
−76,171
−79,548
−82,825
−86,009
−89,11
−92,124
−95,044
−97,865
−100,552
−103,062
−105,341
−107,325
−108,971
−110,264
−111,195
−111,775
−112,025
−111,961
−111,612
−111,013
−110,192
−109,177
−107,994
−106,662
−105,212
−103,679
−102,1
−100,519
−98,969
−97,473
−96,051
−94,715
−93,473
−92,33
−91,286
−90,333
−89,469
−88,692
−88,001
−87,397
−86,879
−86,443
−86,085
−85,801
−85,585
−85,433
−85,342
−85,306
−85,321
−85,385
−85,494
−85,648
−85,844
−86,077
−86,346
−86,646
−86,972
−87,323
−87,693
−88,08
−88,48
−88,891
−89,309
−89,734
−90,164
−90,598
−91,034
−91,472
−91,912
−92,354
−92,796
−93,24
−93,684
−94,129
−94,574
−95,019
−95,465
−95,912
−96,359
−96,807
−97,256
−97,707
−98,159
−98,612
−99,068
−99,525
−99,984
−100,444
−100,906
−101,369
−101,833
−102,298
−102,764
−103,231
−103,697
−104,163
−104,627
−105,089
−105,548
−106,004
−106,454
−106,899
−107,336
−107,766
−108,187
−108,599
−109,001
−109,391
−109,768
−110,133
−110,485
−110,821
−111,143
−111,449
−111,738
−112,011
−112,267
−112,506
−112,726
−112,93
−113,115
−113,282
−113,432
−113,563
−113,677
−113,773
−113,852
−113,914
−113,96
−113,989
−114,003
−114,002
−113,987
−113,958
−113,916
−113,862
−113,797
−113,721
−113,635
−113,54
−113,437
−113,327
−113,21
−113,087
−112,96
−112,829
−112,693
−112,556
−112,415
−112,273
−112,13
−111,985
−111,84
−111,694
−111,549
−111,403
−111,257
−111,111
−110,966
−110,819
−110,672
−110,524
−110,374
−110,221
−110,065
−109,906
−109,742
−109,573
−109,399
−109,217
−109,028
−108,831
−108,624
−108,406
−108,178
−107,938
−107,685
−107,418
−107,137
−106,841
−106,531
−106,204
−105,861
−105,502
−105,125
−104,732
−104,321
−103,892
−103,447
−102,985
−102,506
−102,012
−101,503
−100,98
−100,444
−99,895
−99,336
−98,767
−98,19
−97,606
−97,017
−96,425
−95,832
−95,239
−94,65
−94,065
−93,488
−92,919
−92,363
−91,819
−91,292
−90,783
−90,294
−89,828
−89,386
−88,972
−88,587
−88,234
−87,914
−87,628
−87,378
−87,166
−86,993
−86,859
−86,766
−86,715
−86,706
−86,74
−86,818
−86,938
−87,101
−87,305
−87,549
−87,831
−88,15
−88,502
−88,886
−89,298
−89,737
−90,198
−90,679
−91,175
−91,683
−92,198
−92,715
−93,229
−93,736
−94,229
−94,704
−95,155
−95,577
−95,965
−96,314
−96,618
−96,872
−97,07
−97,205
−97,271
−97,262
−97,169
−96,988
−96,713
−96,341
−95,866
−95,287
−94,601
−93,807
−92,907
−91,898
−90,78
−89,55
−88,206
−86,748
−85,175
−83,487
−81,682
−79,762
−77,73
−75,591
−73,354
−71,022
−68,597
−66,081
−63,476
−60,796
−58,051
−55,256
−52,428
−49,587
−46,764
−43,999
−41,332
−38,794
−36,408
−34,184
−32,14
−30,288
−28,646
−27,227
−26,031
−25,053
−24,291
−23,749
−23,428
−23,316
−23,381
−23,567
−23,825
−24,123
−24,449
−24,806
−25,195
−25,624
−26,114
−26,695
−27,426
−28,36
−29,532
−30,965
−32,669
−34,656
−36,964
−39,652
−42,762
−46,324
−50,334
−54,759
−59,566
−64,691
−70,048
−75,544
−81,034
−86,35
−91,388
−96,092
−100,473
−104,654
−108,736
−112,755
−116,819
−121,079
−125,619
−130,506
−135,636
−140,608
−145,052
−148,664
−151,066
−151,936
−151,003
−147,968
−142,813
−136,02
−128,142
−119,84
−111,968
−105,292
−100,655
−99,002
−101,088
−107,252
−117,613
−132,048
−149,355
−167,054
−182,077
−190,976
−192,189
−187,341
−178,139
−164,446
−141,355
−98,58
−25,266
85,3
231,627
405,46
593,668
781,683
957,288
1105,866
1213,725
1270,489
1267,999
1209,426
1104,827
965,217
804,212
629,539
446,756
265,874
96,592
−48,982
−160,612
−236,748
−280,015
−297,098
−295,694
−280,711
−256,943
−228,094
−197,718
−168,77
−141,772
−117,213
−94,973
−75,746
−61,909
−54,385
−53,196
−57,126
−63,424
−70,206
−76,321
−80,786
−83,217
−83,219
−80,354
−74,858
−67,378
−58,566
−49,135
−39,718
−30,782
−22,821
−16,307
−11,371
−7,895
−5,68
−4,408
−3,782
−3,569
−3,511
−3,358
−2,986
−2,345
−1,411
−0,22
1,209
2,87
4,733
6,778
9,012
11,458
14,148
17,101
20,309
23,755
27,43
31,331
35,459
39,806
44,352
49,081
53,981
59,046
64,272
69,639
75,117
80,672
86,265
91,877
97,5
103,136
108,79
114,472
120,193
125,971
131,83
137,795
143,89
150,141
156,574
163,221
170,114
177,287
184,774
192,595
200,757
209,253
218,062
227,159
236,521
246,12
255,934
265,934
276,09
286,371
296,745
307,176
317,638
328,098
338,524
348,901
359,227
369,52
379,823
390,17
400,588
411,102
421,721
432,441
443,25
454,113
464,987
475,822
486,558
497,13
507,479
517,513
527,123
536,184
544,529
551,991
558,413
563,627
567,477
569,844
570,634
569,788
567,281
563,087
557,2
549,63
540,383
529,488
516,993
502,95
487,452
470,624
452,596
433,531
413,609
392,978
371,779
350,136
328,147
305,919
283,562
261,166
238,846
216,727
194,938
173,634
152,955
133,006
113,886
95,673
78,403
62,123
46,868
32,655
19,515
7,468
−3,482
−13,325
−22,076
−29,785
−36,524
−42,395
−47,515
−51,989
−55,93
−59,454
−62,642
−65,565
−68,282
−70,823
−73,225
−75,527
−77,755
−79,937
−82,092
−84,217
−86,301
−88,324
−90,249
−92,037
−93,643
−95,01
−96,105
−96,913
−97,431
−97,674
−97,658
−97,398
−96,915
−96,237
−95,389
−94,397
−93,289
−92,086
−90,818
−89,518
−88,223
−86,975
−85,803
−84,729
−83,766
−82,922
−82,2
−81,602
−81,125
−80,759
−80,498
−80,337
−80,271
−80,298
−80,416
−80,615
−80,889
−81,227
−81,622
−82,066
−82,552
−83,072
−83,619
−84,189
−84,776
−85,378
−85,991
−86,61
−87,23
−87,846
−88,453
−89,047
−89,623
−90,178
−90,708
−91,21
−91,684
−92,128
−92,542
−92,926
−93,281
−93,609
−93,909
−94,185
−94,437
−94,668
−94,881
−95,077
−95,26
−95,433
−95,598
−95,759
−95,919
−96,081
−96,247
−96,42
−96,603
−96,797
−97,005
−97,228
−97,469
−97,73
−98,011
−98,314
−98,641
−98,992
−99,368
−99,77
−100,197
−100,65
−101,127
−101,628
−102,151
−102,696
−103,262
−103,845
−104,444
−105,058
−105,683
−106,318
−106,959
−107,605
−108,252
−108,898
−109,54
−110,177
−110,806
−111,426
−112,034
−112,629
−113,209
−113,773
−114,319
−114,847
−115,355
−115,843
−116,309
−116,754
−117,176
−117,576
−117,954
−118,309
−118,642
−118,954
−119,244
−119,513
−119,762
−119,993
−120,206
−120,402
−120,583
−120,751
−120,907
−121,053
−121,189
−121,319
−121,443
−121,562
−121,679
−121,793
−121,906
−122,019
−122,132
−122,248
−122,366
−122,487
−122,611
−122,739
−122,871
−123,008
−123,148
−123,293
−123,442
−123,595
−123,752
−123,912
−124,076
−124,242
−124,41
−124,581
−124,752
−124,924
−125,096
−125,267
−125,435
−125,601
−125,763
−125,921
−126,073
−126,22
−126,36
−126,493
−126,619
−126,737
−126,846
−126,946
−127,037
−127,118
−127,189
−127,25
−127,301
−127,341
−127,372
−127,392
−127,402
−127,402
−127,393
−127,374
−127,345
−127,307
−127,26
−127,203
−127,138
−127,063
−126,98
−126,889
−126,79
−126,684
−126,57
−126,45
−126,324
−126,193
−126,057
−125,916
−125,773
−125,626
−125,478
−125,329
−125,181
−125,034
−124,89
−124,75
−124,614
−124,485
−124,362
−124,246
−124,138
−124,039
−123,949
−123,87
−123,801
−123,743
−123,698
−123,667
−123,65
−123,648
−123,661
−123,691
−123,737
−123,799
−123,877
−123,97
−124,078
−124,199
−124,332
−124,477
−124,63
−124,79
−124,955
−125,122
−125,288
−125,448
−125,599
−125,738
−125,861
−125,963
−126,041
−126,09
−126,109
−126,092
−126,037
−125,938
−125,791
−125,592
−125,335
−125,015
−124,626
−124,161
−123,616
−122,987
−122,268
−121,456
−120,548
−119,542
−118,438
−117,235
−115,932
−114,528
−113,021
−111,41
−109,694
−107,874
−105,948
−103,917
−101,782
−99,546
−97,216
−94,797
−92,296
−89,715
−87,054
−84,32
−81,522
−78,673
−75,79
−72,889
−69,996
−67,143
−64,374
−61,731
−59,249
−56,952
−54,854
−52,968
−51,308
−49,886
−48,712
−47,783
−47,092
−46,635
−46,414
−46,42
−46,633
−47,009
−47,478
−47,976
−48,463
−48,916
−49,34
−49,738
−50,12
−50,518
−50,977
−51,562
−52,325
−53,291
−54,46
−55,836
−57,447
−59,352
−61,635
−64,346
−67,502
−71,087
−75,058
−79,375
−83,963
−88,666
−93,337
−97,866
−102,227
−106,562
−111,043
−115,746
−120,771
−126,228
−132,078
−138,253
−144,511
−150,207
−154,765
−157,838
−159,063
−158,293
−155,618
−151,013
−144,745
−137,787
−131,036
−125,075
−120,622
−118,022
−117,388
−119,899
−126,358
−135,879
−148,111
−161,412
−173,772
−186,032
−197,063
−205,616
−211,006
−209,877
−201,639
−186,099
−161,086
−123,924
−68,308
13,352
126,096
270,192
440,714
626,544
812,005
981,784
1119,379
1211,472
1252,207
1239,235
1176,905
1073,977
936,767
772,636
589,097
393,751
200,524
25,388
−117,822
−219,466
−280,975
−311,733
−322,935
−324,09
−316,955
−298,304
−266,05
−221,718
−173,323
−131,04
−101,199
−84,972
−77,903
−74,357
−71,401
−68,731
−68,177
−70,805
−75,862
−81,771
−86,455
−88,669
−88,096
−84,66
−78,8
−71,192
−62,451
−53,293
−44,388
−36,197
−29,152
−23,646
−19,764
−17,374
−16,226
−15,943
−16,178
−16,694
−17,251
−17,623
−17,69
−17,382
−16,674
−15,61
−14,224
−12,533
−10,555
−8,298
−5,748
−2,893
0,262
3,703
7,402
11,336
15,494
19,866
24,436
29,179
34,071
39,099
44,258
49,545
54,941
60,417
65,936
71,461
76,977
82,482
87,979
93,478
98,987
104,519
110,096
115,748
121,499
127,369
133,377
139,542
145,894
152,474
159,32
166,47
173,947
181,767
189,935
198,449
207,293
216,436
225,845
235,483
245,321
255,336
265,503
275,79
286,161
296,57
306,979
317,356
327,671
337,891
348,005
358,012
367,933
377,82
387,713
397,641
407,623
417,656
427,733
437,843
447,963
458,059
468,091
478,007
487,758
497,3
506,555
515,414
523,738
531,338
538,036
543,669
548,074
551,111
552,663
552,627
550,936
547,553
542,436
535,555
526,88
516,365
504,013
489,871
474,018
456,596
437,77
417,71
396,617
374,698
352,136
329,107
305,76
282,226
258,659
235,226
212,102
189,495
167,591
146,55
126,528
107,623
89,892
73,373
58,051
43,894
30,88
18,986
8,192
−1,516
−10,185
−17,881
−24,68
−30,703
−36,073
−40,923
−45,403
−49,627
−53,671
−57,595
−61,422
−65,157
−68,815
−72,404
−75,926
−79,388
−82,784
−86,103
−89,333
−92,439
−95,374
−98,081
−100,485
−102,537
−104,212
−105,495
−106,392
−106,922
−107,1
−106,951
−106,51
−105,808
−104,873
−103,733
−102,409
−100,931
−99,338
−97,669
−95,972
−94,283
−92,629
−91,031
−89,505
−88,059
−86,703
−85,436
−84,253
−83,153
−82,133
−81,196
−80,344
−79,578
−78,895
−78,292
−77,764
−77,309
−76,924
−76,605
−76,348
−76,151
−76,012
−75,927
−75,898
−75,922
−75,997
−76,118
−76,283
−76,488
−76,73
−77,004
−77,308
−77,637
−77,99
−78,363
−78,756
−79,166
−79,592
−80,033
−80,488
−80,955
−81,435
−81,926
−82,428
−82,938
−83,457
−83,984
−84,518
−85,058
−85,604
−86,155
−86,71
−87,27
−87,834
−88,401
−88,972
−89,544
−90,119
−90,696
−91,274
−91,852
−92,431
−93,009
−93,587
−94,163
−94,737
−95,308
−95,875
−96,438
−96,994
−97,544
−98,086
−98,619
−99,142
−99,656
−100,158
−100,65
−101,129
−101,597
−102,053
−102,497
−102,928
−103,347
−103,755
−104,15
−104,534
−104,908
−105,27
−105,623
−105,967
−106,302
−106,629
−106,948
−107,261
−107,569
−107,871
−108,17
−108,465
−108,759
−109,051
−109,343
−109,636
−109,93
−110,226
−110,525
−110,828
−111,135
−111,446
−111,762
−112,083
−112,409
−112,739
−113,074
−113,414
−113,758
−114,106
−114,458
−114,812
−115,169
−115,527
−115,887
−116,246
−116,606
−116,964
−117,32
−117,673
−118,023
−118,368
−118,707
−119,04
−119,366
−119,683
−119,99
−120,287
−120,572
−120,846
−121,106
−121,352
−121,584
−121,8
−122,002
−122,187
−122,357
−122,51
−122,647
−122,767
−122,871
−122,959
−123,031
−123,087
−123,127
−123,152
−123,162
−123,157
−123,138
−123,104
−123,057
−122,995
−122,921
−122,834
−122,736
−122,626
−122,506
−122,376
−122,239
−122,095
−121,945
−121,791
−121,634
−121,476
−121,318
−121,162
−121,009
−120,861
−120,718
−120,583
−120,457
−120,341
−120,236
−120,144
−120,066
−120,002
−119,954
−119,923
−119,91
−119,917
−119,944
−119,993
−120,066
−120,164
−120,288
−120,439
−120,617
−120,823
−121,057
−121,318
−121,607
−121,921
−122,259
−122,62
−123,001
−123,399
−123,812
−124,237
−124,67
−125,107
−125,545
−125,979
−126,406
−126,82
−127,218
−127,595
−127,945
−128,266
−128,55
−128,793
−128,989
−129,132
−129,217
−129,236
−129,181
−129,046
−128,824
−128,508
−128,092
−127,57
−126,937
−126,189
−125,324
−124,34
−123,235
−122,008
−120,657
−119,181
−117,58
−115,855
−114,005
−112,032
−109,937
−107,723
−105,397
−102,964
−100,432
−97,807
−95,093
−92,298
−89,437
−86,528
−83,593
−80,656
−77,743
−74,887
−72,126
−69,499
−67,04
−64,783
−62,748
−60,951
−59,412
−58,149
−57,181
−56,519
−56,154
−56,067
−56,238
−56,64
−57,245
−58,017
−58,899
−59,842
−60,806
−61,756
−62,688
−63,601
−64,491
−65,349
−66,163
−66,927
−67,662
−68,41
−69,203
−70,081
−71,073
−72,205
−73,521
−75,055
−76,82
−78,825
−81,03
−83,359
−85,79
−88,343
−91,102
−94,23
−97,836
−101,964
−106,725
−112,257
−118,624
−125,824
−133,628
−141,54
−149,144
−156,065
−161,852
−166,086
−168,34
−168,211
−165,69
−161,203
−155,168
−148,199
−141,135
−134,781
−130,192
−128,575
−130,744
−137,086
−147,972
−162,623
−178,831
−194,128
−205,038
−209,092
−206,656
−197,989
−182,779
−158,537
−117,963
−52,249
45,955
180,591
348,819
540,09
738,753
926,105
1081,97
1191,276
1245,255
1240,566
1183,669
1083,71
949,444
792,02
618,111
435,622
256,837
92,369
−45,834
−151,02
−225,176
−273,761
−305,468
−326,062
−336,441
−335,756
−322,113
−296,602
−263,052
−225,859
−189,604
−156,954
−129,007
−106,487
−89,472
−77,763
−70,917
−67,898
−67,454
−68,504
−70,079
−71,334
−71,597
−70,445
−67,822
−64,01
−59,458
−54,538
−49,472
−44,508
−39,917
−35,817
−32,13
−28,689
−25,295
−21,905
−18,697
−15,753
−13,051
−10,653
−8,684
−7,216
−6,27
−5,686
−5,098
−4,256
−3,038
−1,304
1,075
4,169
8,003
12,477
17,359
22,493
27,807
33,246
38,782
44,382
50
55,628
61,299
67,019
72,772
78,519
84,195
89,77
95,246
100,635
105,958
111,235
116,481
121,723
126,996
132,331
137,753
143,281
148,932
154,73
160,715
166,929
173,421
180,223
187,355
194,834
202,662
210,835
219,34
228,146
237,222
246,536
256,065
265,79
275,691
285,739
295,9
306,135
316,405
326,682
336,934
347,13
357,255
367,305
377,294
387,26
397,239
407,251
417,311
427,42
437,565
447,729
457,881
467,983
477,988
487,841
497,487
506,876
515,934
524,567
532,657
540,05
546,592
552,133
556,529
559,641
561,36
561,606
560,323
557,481
553,06
547,053
539,448
530,239
519,435
507,06
493,168
477,852
461,226
443,426
424,615
404,966
384,644
363,786
342,516
320,942
299,17
277,315
255,506
233,875
212,566
191,742
171,548
152,117
133,567
115,971
99,365
83,759
69,153
55,553
42,971
31,413
20,879
11,357
2,812
−4,802
−11,549
−17,538
−22,883
−27,708
−32,143
−36,278
−40,175
−43,879
−47,415
−50,806
−54,079
−57,251
−60,334
−63,34
−66,271
−69,129
−71,909
−74,577
−77,091
−79,397
−81,433
−83,16
−84,562
−85,629
−86,369
−86,798
−86,931
−86,793
−86,415
−85,823
−85,043
−84,097
−83,004
−81,794
−80,501
−79,163
−77,821
−76,51
−75,251
−74,066
−72,968
−71,963
−71,058
−70,251
−69,537
−68,911
−68,373
−67,92
−67,555
−67,276
−67,079
−66,961
−66,916
−66,939
−67,025
−67,17
−67,369
−67,619
−67,916
−68,258
−68,643
−69,069
−69,535
−70,035
−70,568
−71,128
−71,713
−72,32
−72,944
−73,583
−74,233
−74,893
−75,56
−76,234
−76,914
−77,599
−78,289
−78,984
−79,683
−80,387
−81,097
−81,812
−82,532
−83,259
−83,993
−84,734
−85,483
−86,241
−87,009
−87,786
−88,573
−89,37
−90,178
−90,996
−91,824
−92,662
−93,508
−94,364
−95,228
−96,099
−96,978
−97,864
−98,755
−99,651
−100,551
−101,453
−102,356
−103,258
−104,158
−105,053
−105,943
−106,825
−107,697
−108,557
−109,405
−110,236
−111,05
−111,845
−112,618
−113,369
−114,095
−114,795
−115,468
−116,112
−116,728
−117,313
−117,868
−118,392
−118,885
−119,345
−119,775
−120,172
−120,538
−120,872
−121,174
−121,446
−121,687
−121,898
−122,08
−122,232
−122,357
−122,454
−122,525
−122,571
−122,593
−122,592
−122,57
−122,528
−122,467
−122,389
−122,296
−122,188
−122,068
−121,936
−121,794
−121,643
−121,484
−121,318
−121,145
−120,968
−120,786
−120,6
−120,41
−120,218
−120,023
−119,827
−119,63
−119,432
−119,234
−119,037
−118,841
−118,648
−118,457
−118,27
−118,087
−117,909
−117,736
−117,57
−117,411
−117,259
−117,117
−116,984
−116,86
−116,748
−116,646
−116,557
−116,481
−116,418
−116,37
−116,337
−116,321
−116,323
−116,343
−116,385
−116,448
−116,534
−116,645
−116,783
−116,947
−117,138
−117,358
−117,607
−117,884
−118,19
−118,525
−118,887
−119,276
−119,69
−120,128
−120,588
−121,068
−121,565
−122,076
−122,6
−123,132
−123,67
−124,21
−124,748
−125,281
−125,804
−126,314
−126,805
−127,273
−127,71
−128,112
−128,47
−128,779
−129,03
−129,215
−129,328
−129,363
−129,312
−129,169
−128,93
−128,59
−128,145
−127,591
−126,925
−126,142
−125,237
−124,207
−123,048
−121,759
−120,336
−118,778
−117,081
−115,248
−113,281
−111,181
−108,949
−106,583
−104,086
−101,465
−98,735
−95,913
−93,02
−90,081
−87,122
−84,182
−81,298
−78,506
−75,841
−73,325
−70,978
−68,819
−66,869
−65,15
−63,678
−62,449
−61,449
−60,668
−60,082
−59,672
−59,403
−59,22
−59,076
−58,931
−58,748
−58,517
−58,23
−57,891
−57,526
−57,162
−56,827
−56,566
−56,417
−56,424
−56,675
−57,209
−58,012
−59,098
−60,436
−62,05
−64,077
−66,552
−69,379
−72,553
−76,146
−80,266
−85,165
−90,908
−97,231
−103,985
−111,175
−118,734
−126,506
−134,174
−141,14
−146,983
−151,704
−155,3
−157,648
−158,63
−158,197
−156,48
−153,904
−150,904
−147,658
−144,298
−141,114
−138,54
−137,023
−137,019
−138,87
−142,881
−149,461
−158,953
−171,479
−186,135
−200,935
−213,68
−221,714
−223,772
−220,684
−211,852
−195,941
−169,127
−123,482
−53,824
43,156
168,053
315,731
481,765
658,917
834,846
994,922
1119,458
1191,349
1203,112
1157,376
1067,078
947,462
808,826
655,408
488,059
311,18
136,231
−20,715
−145,029
−231,361
−284,76
−315,75
−334,337
−343,219
−339,057
−318,407
−281,824
−237,224
−195,354
−163,879
−144,665
−132,835
−122,616
−110,999
−98,284
−88,036
−82,558
−81,704
−84,166
−87,599
−90,422
−92,12
−92,22
−90,413
−86,753
−81,498
−75,085
−68,079
−60,976
−54,183
−48,206
−43,589
−40,531
−38,943
−38,589
−39,102
−40,162
−41,548
−42,983
−44,155
−44,875
−45,056
−44,681
−43,822
−42,534
−40,826
−38,725
−36,254
−33,414
−30,234
−26,746
−22,971
−18,946
−14,699
−10,251
−5,632
−0,881
3,981
8,934
13,975
19,108
24,322
29,595
34,898
40,197
45,479
50,746
56,004
61,266
66,544
71,853
77,216
82,666
88,227
93,919
99,758
105,76
111,951
118,368
125,048
132,023
139,319
146,949
154,917
163,222
171,848
180,767
189,946
199,349
208,947
218,72
228,643
238,687
248,819
258,995
269,178
279,34
289,452
299,486
309,431
319,29
329,086
338,874
348,696
358,585
368,561
378,625
388,769
398,987
409,256
419,544
429,814
440,013
450,091
460,006
469,677
478,996
487,818
495,954
503,221
509,454
514,486
518,175
520,4
521,054
520,067
517,399
513,004
506,853
498,912
489,137
477,531
464,142
449,054
432,413
414,385
395,146
374,899
353,852
332,191
310,095
287,715
265,181
242,646
220,274
198,237
176,737
155,952
136,035
117,127
99,315
82,647
67,147
52,795
39,548
27,378
16,253
6,149
−2,951
−11,098
−18,355
−24,801
−30,549
−35,721
−40,438
−44,839
−49,029
−53,075
−57,028
−60,904
−64,703
−68,433
−72,097
−75,691
−79,223
−82,683
−86,06
−89,342
−92,493
−95,471
−98,221
−100,676
−102,789
−104,539
−105,913
−106,918
−107,574
−107,897
−107,911
−107,652
−107,146
−106,421
−105,503
−104,412
−103,177
−101,831
−100,413
−98,965
−97,522
−96,107
−94,738
−93,431
−92,193
−91,029
−89,941
−88,921
−87,967
−87,076
−86,249
−85,488
−84,791
−84,157
−83,581
−83,059
−82,587
−82,164
−81,785
−81,446
−81,146
−80,882
−80,652
−80,457
−80,296
−80,165
−80,063
−79,988
−79,935
−79,904
−79,89
−79,892
−79,908
−79,934
−79,971
−80,018
−80,074
−80,139
−80,215
−80,301
−80,4
−80,511
−80,636
−80,776
−80,932
−81,105
−81,296
−81,506
−81,736
−81,987
−82,259
−82,555
−82,873
−83,217
−83,585
−83,978
−84,396
−84,841
−85,311
−85,807
−86,328
−86,876
−87,448
−88,046
−88,668
−89,314
−89,982
−90,671
−91,379
−92,105
−92,846
−93,599
−94,362
−95,133
−95,909
−96,688
−97,466
−98,242
−99,013
−99,777
−100,531
−101,273
−102,001
−102,712
−103,406
−104,079
−104,732
−105,361
−105,967
−106,547
−107,101
−107,628
−108,127
−108,597
−109,038
−109,449
−109,83
−110,182
−110,504
−110,798
−111,064
−111,303
−111,517
−111,707
−111,875
−112,023
−112,152
−112,265
−112,364
−112,451
−112,528
−112,598
−112,662
−112,722
−112,781
−112,84
−112,902
−112,969
−113,041
−113,121
−113,21
−113,309
−113,421
−113,546
−113,685
−113,84
−114,011
−114,198
−114,404
−114,626
−114,867
−115,124
−115,398
−115,688
−115,992
−116,31
−116,64
−116,979
−117,327
−117,681
−118,04
−118,401
−118,762
−119,12
−119,474
−119,822
−120,161
−120,489
−120,804
−121,105
−121,389
−121,654
−121,899
−122,121
−122,32
−122,494
−122,641
−122,76
−122,85
−122,91
−122,939
−122,939
−122,907
−122,846
−122,756
−122,637
−122,491
−122,321
−122,127
−121,913
−121,679
−121,43
−121,167
−120,893
−120,611
−120,324
−120,035
−119,745
−119,458
−119,176
−118,901
−118,637
−118,385
−118,147
−117,927
−117,725
−117,545
−117,389
−117,258
−117,155
−117,08
−117,035
−117,02
−117,037
−117,083
−117,16
−117,265
−117,396
−117,552
−117,73
−117,927
−118,139
−118,363
−118,594
−118,828
−119,061
−119,288
−119,504
−119,704
−119,884
−120,039
−120,165
−120,255
−120,306
−120,312
−120,267
−120,167
−120,005
−119,774
−119,467
−119,08
−118,606
−118,039
−117,375
−116,609
−115,739
−114,761
−113,676
−112,482
−111,178
−109,762
−108,235
−106,595
−104,844
−102,981
−101,009
−98,927
−96,737
−94,447
−92,061
−89,584
−87,021
−84,372
−81,645
−78,853
−76,009
−73,132
−70,245
−67,372
−64,542
−61,795
−59,165
−56,688
−54,395
−52,302
−50,426
−48,785
−47,393
−46,271
−45,424
−44,845
−44,518
−44,427
−44,545
−44,846
−45,289
−45,811
−46,365
−46,912
−47,417
−47,876
−48,292
−48,667
−49,004
−49,314
−49,606
−49,906
−50,256
−50,681
−51,218
−51,909
−52,797
−53,942
−55,381
−57,122
−59,162
−61,482
−64,026
−66,719
−69,516
−72,403
−75,445
−78,783
−82,526
−86,752
−91,565
−97,082
−103,353
−110,332
−117,748
−125,063
−131,808
−137,593
−142,034
−144,803
−145,535
−143,96
−140,311
−135,247
−129,306
−123,046
−117,017
−112,151
−110,427
−113,703
−122,195
−133,668
−143,972
−149,039
−148,372
−145,976
−147,58
−158,652
−178,69
−199,478
−209,248
−193,121
−140,864
−50,946
73,499
221,878
383,416
552,143
720,995
884,656
1033,846
1151,767
1223,666
1239,04
1197,437
1110,434
992,008
853,574
700,34
532,8
354,805
177
15,97
−111,905
−199,043
−248,767
−272,611
−283,402
−287,184
−282,561
−264,405
−229,062
−180,261
−128,376
−84,437
−55,999
−43,64
−41,263
−42,548
−43,713
−44,017
−45,963
−51,049
−58,57
−66,842
−73,352
−76,492
−75,971
−72,129
−65,751
−57,654
−48,605
−39,382
−30,683
−23,109
−17,084
−12,689
−9,779
−8,085
−7,252
−6,948
−6,875
−6,76
−6,374
−5,603
−4,421
−2,832
−0,886
1,361
3,871
6,593
9,473
12,475
15,579
18,763
22,034
25,413
28,904
32,518
36,264
40,139
44,14
48,26
52,494
56,848
61,334
65,961
70,742
75,69
80,811
86,119
91,602
97,227
102,962
108,771
114,635
120,556
126,541
132,609
138,774
145,043
151,424
157,924
164,548
171,3
178,17
185,134
192,193
199,372
206,709
214,256
222,033
230,036
238,254
246,667
255,265
264,046
272,994
282,091
291,318
300,668
310,158
319,832
329,692
339,723
349,89
360,145
370,485
380,927
391,476
402,137
412,894
423,724
434,612
445,547
456,492
467,387
478,145
488,654
498,838
508,634
517,966
526,752
534,851
542,108
548,38
553,529
557,422
559,935
560,947
560,351
558,086
554,12
548,433
541,018
531,851
520,9
508,171
493,709
477,607
459,991
441,004
420,805
399,581
377,535
354,86
331,737
308,318
284,74
261,163
237,755
214,702
192,211
170,464
149,62
129,823
111,172
93,73
77,53
62,561
48,783
36,167
24,682
14,303
5,006
−3,268
−10,594
−17,062
−22,798
−27,931
−32,592
−36,928
−41,052
−45,039
−48,945
−52,791
−56,578
−60,316
−64,01
−67,659
−71,266
−74,818
−78,3
−81,695
−84,964
−88,055
−90,912
−93,46
−95,652
−97,462
−98,88
−99,911
−100,575
−100,888
−100,878
−100,579
−100,021
−99,233
−98,244
−97,075
−95,758
−94,331
−92,833
−91,31
−89,798
−88,323
−86,906
−85,56
−84,296
−83,12
−82,032
−81,028
−80,105
−79,263
−78,501
−77,825
−77,232
−76,722
−76,292
−75,938
−75,656
−75,443
−75,298
−75,216
−75,196
−75,234
−75,33
−75,483
−75,691
−75,953
−76,264
−76,622
−77,022
−77,461
−77,935
−78,441
−78,975
−79,533
−80,114
−80,715
−81,334
−81,97
−82,621
−83,287
−83,965
−84,656
−85,358
−86,07
−86,791
−87,521
−88,258
−89,003
−89,753
−90,51
−91,271
−92,037
−92,807
−93,581
−94,358
−95,137
−95,917
−96,698
−97,48
−98,261
−99,042
−99,822
−100,599
−101,375
−102,148
−102,918
−103,683
−104,444
−105,198
−105,945
−106,685
−107,415
−108,136
−108,845
−109,543
−110,227
−110,899
−111,556
−112,198
−112,824
−113,434
−114,028
−114,604
−115,163
−115,705
−116,231
−116,739
−117,232
−117,708
−118,17
−118,617
−119,051
−119,472
−119,881
−120,279
−120,666
−121,045
−121,414
−121,777
−122,133
−122,484
−122,83
−123,173
−123,513
−123,852
−124,189
−124,527
−124,865
−125,205
−125,546
−125,891
−126,239
−126,591
−126,948
−127,309
−127,675
−128,046
−128,422
−128,802
−129,186
−129,574
−129,964
−130,357
−130,752
−131,148
−131,543
−131,937
−132,329
−132,718
−133,103
−133,483
−133,856
−134,221
−134,578
−134,926
−135,264
−135,59
−135,905
−136,206
−136,493
−136,766
−137,023
−137,264
−137,488
−137,695
−137,883
−138,053
−138,203
−138,335
−138,448
−138,541
−138,614
−138,669
−138,705
−138,722
−138,721
−138,702
−138,666
−138,614
−138,547
−138,466
−138,372
−138,266
−138,149
−138,024
−137,891
−137,752
−137,609
−137,463
−137,317
−137,171
−137,029
−136,892
−136,761
−136,639
−136,528
−136,428
−136,343
−136,272
−136,218
−136,181
−136,164
−136,167
−136,191
−136,237
−136,306
−136,399
−136,517
−136,66
−136,828
−137,021
−137,239
−137,481
−137,747
−138,034
−138,342
−138,668
−139,01
−139,365
−139,731
−140,103
−140,478
−140,851
−141,219
−141,576
−141,917
−142,239
−142,535
−142,802
−143,034
−143,226
−143,375
−143,473
−143,517
−143,5
−143,418
−143,266
−143,036
−142,723
−142,32
−141,822
−141,224
−140,521
−139,709
−138,782
−137,739
−136,578
−135,298
−133,897
−132,375
−130,731
−128,964
−127,076
−125,067
−122,938
−120,692
−118,329
−115,853
−113,272
−110,588
−107,807
−104,933
−101,965
−98,912
−95,786
−92,601
−89,377
−86,136
−82,906
−79,72
−76,62
−73,642
−70,82
−68,181
−65,748
−63,545
−61,597
−59,921
−58,541
−57,467
−56,697
−56,226
−56,037
−56,095
−56,358
−56,771
−57,262
−57,78
−58,284
−58,743
−59,142
−59,462
−59,699
−59,862
−59,96
−60,004
−60,01
−59,999
−60,005
−60,101
−60,367
−60,885
−61,74
−62,975
−64,608
−66,648
−69,093
−71,909
−75,005
−78,312
−81,797
−85,498
−89,571
−94,147
−99,271
−104,991
−111,386
−118,436
−126,056
−133,993
−141,673
−148,568
−154,275
−158,371
−160,553
−160,645
−158,491
−154,256
−148,611
−142,243
−135,883
−130,381
−126,36
−124,534
−125,718
−130,312
−138,327
−149,673
−163,85
−180,188
−197,361
−212,431
−222,05
−222,915
−213,428
−194,928
−168,945
−135,533
−91,077
−27,977
61,973
183,701
335,837
511,57
698,22
880,585
1044,244
1172,621
1253,288
1279,502
1248,381
1167,589
1048,141
899,48
732,324
552,123
364,42
180,896
13,4
−124,756
−224,103
−286,437
−318,377
−329,007
−325,921
−309,791
−280,434
−239,925
−193,748
−150,981
−118,258
−97,08
−84,102
−74,271
−64,815
−56,003
−50,37
−49,529
−52,879
−58,605
−64,319
−68,503
−70,699
−70,671
−68,349
−63,961
−57,937
−50,894
−43,503
−36,301
−29,691
−24,084
−19,89
−17,224
−15,93
−15,726
−16,228
−17,107
−18,14
−19,082
−19,666
−19,737
−19,233
−18,151
−16,568
−14,55
−12,119
−9,311
−6,155
−2,658
1,149
5,226
9,547
14,068
18,758
23,597
28,555
33,598
38,705
43,86
49,063
54,324
59,636
64,985
70,345
75,685
80,993
86,273
91,533
96,786
102,046
107,326
112,65
118,05
123,55
129,17
134,925
140,831
146,913
153,207
159,751
166,581
173,725
181,199
189,014
197,173
205,663
214,463
223,543
232,87
242,416
252,162
262,082
272,149
282,33
292,583
302,87
313,162
323,429
333,642
343,777
353,829
363,81
373,762
383,718
393,709
403,752
413,851
424,008
434,216
444,454
454,697
464,897
475
484,95
494,695
504,167
513,285
521,92
529,913
537,106
543,338
548,457
552,323
554,791
555,752
555,125
552,852
548,906
543,272
535,92
526,833
516,002
503,427
489,161
473,297
455,939
437,227
417,319
396,388
374,637
352,241
329,352
306,11
282,64
259,072
235,568
212,293
189,418
167,142
145,633
125,038
105,507
87,129
69,956
54,015
39,284
25,75
13,41
2,255
−7,729
−16,565
−24,317
−31,058
−36,876
−41,91
−46,297
−50,181
−53,723
−57,035
−60,193
−63,26
−66,257
−69,203
−72,126
−75,039
−77,95
−80,868
−83,784
−86,686
−89,559
−92,357
−95,023
−97,495
−99,695
−101,575
−103,112
−104,29
−105,118
−105,61
−105,782
−105,657
−105,269
−104,645
−103,81
−102,792
−101,61
−100,296
−98,888
−97,424
−95,951
−94,501
−93,098
−91,76
−90,5
−89,325
−88,238
−87,238
−86,317
−85,473
−84,703
−84,008
−83,388
−82,844
−82,373
−81,972
−81,636
−81,362
−81,147
−80,988
−80,883
−80,828
−80,823
−80,865
−80,957
−81,096
−81,281
−81,51
−81,78
−82,088
−82,432
−82,809
−83,216
−83,652
−84,113
−84,598
−85,107
−85,638
−86,19
−86,763
−87,355
−87,966
−88,594
−89,238
−89,897
−90,569
−91,253
−91,947
−92,65
−93,36
−94,076
−94,796
−95,519
−96,244
−96,97
−97,696
−98,42
−99,141
−99,857
−100,569
−101,274
−101,972
−102,661
−103,341
−104,011
−104,669
−105,315
−105,947
−106,563
−107,163
−107,746
−108,31
−108,855
−109,379
−109,882
−110,365
−110,826
−111,266
−111,685
−112,083
−112,461
−112,818
−113,154
−113,471
−113,769
−114,048
−114,309
−114,552
−114,778
−114,987
−115,179
−115,356
−115,518
−115,665
−115,797
−115,916
−116,021
−116,115
−116,197
−116,269
−116,331
−116,383
−116,428
−116,466
−116,497
−116,521
−116,54
−116,554
−116,562
−116,566
−116,565
−116,56
−116,551
−116,537
−116,519
−116,497
−116,471
−116,441
−116,408
−116,371
−116,331
−116,288
−116,242
−116,194
−116,143
−116,091
−116,038
−115,982
−115,926
−115,867
−115,808
−115,746
−115,683
−115,618
−115,55
−115,479
−115,406
−115,33
−115,251
−115,169
−115,083
−114,994
−114,902
−114,807
−114,708
−114,606
−114,501
−114,392
−114,279
−114,163
−114,043
−113,92
−113,792
−113,66
−113,524
−113,384
−113,24
−113,092
−112,94
−112,786
−112,629
−112,47
−112,309
−112,149
−111,99
−111,833
−111,679
−111,53
−111,387
−111,25
−111,122
−111,004
−110,895
−110,798
−110,713
−110,642
−110,585
−110,544
−110,519
−110,512
−110,523
−110,555
−110,607
−110,681
−110,777
−110,896
−111,037
−111,201
−111,387
−111,595
−111,824
−112,072
−112,338
−112,62
−112,915
−113,223
−113,538
−113,858
−114,18
−114,5
−114,814
−115,118
−115,408
−115,681
−115,932
−116,158
−116,353
−116,514
−116,635
−116,711
−116,737
−116,705
−116,609
−116,444
−116,203
−115,881
−115,473
−114,973
−114,38
−113,689
−112,9
−112,008
−111,012
−109,908
−108,695
−107,37
−105,93
−104,374
−102,702
−100,912
−99,005
−96,982
−94,844
−92,592
−90,225
−87,742
−85,143
−82,436
−79,631
−76,739
−73,783
−70,784
−67,772
−64,783
−61,848
−59,002
−56,275
−53,696
−51,292
−49,089
−47,111
−45,38
−43,914
−42,714
−41,774
−41,08
−40,607
−40,327
−40,2
−40,174
−40,203
−40,247
−40,267
−40,231
−40,109
−39,88
−39,546
−39,117
−38,633
−38,155
−37,732
−37,428
−37,332
−37,494
−37,949
−38,726
−39,756
−40,97
−42,415
−44,12
−46,116
−48,571
−51,6
−55,32
−60,059
−66,049
−73,283
−81,748
−91,251
−101,295
−111,521
−121,563
−130,728
−138,483
−144,498
−148,37
−150,076
−150,015
−148,433
−145,575
−141,985
−138,047
−134,027
−130,453
−127,6
−125,294
−123,401
−121,987
−120,964
−120,923
−123,251
−128,052
−134,921
−142,941
−149,818
−155,414
−161,046
−167,621
−176,395
−185,924
−192,743
−193,362
−183,784
−160,15
−117,693
−51,786
42,218
166,764
318,857
493,665
681,024
866,573
1036,272
1171,861
1258,413
1288,288
1259,025
1179,342
1061,657
915,98
751,291
571,258
381,17
192,738
20,306
−120,157
−220,296
−282,872
−316,75
−333,544
−338,572
−330,466
−307,087
−268,168
−220,573
−174,736
−138,223
−114,054
−98,846
−87,531
−77,542
−68,82
−63,815
−63,995
−68,502
−75,452
−82,318
−87,402
−90,138
−90,225
−87,636
−82,713
−75,989
−68,165
−60,003
−52,13
−45
−39,043
−34,63
−31,826
−30,461
−30,242
−30,768
−31,699
−32,783
−33,763
−34,387
−34,51
−34,077
−33,092
−31,62
−29,719
−27,424
−24,774
−21,809
−18,553
−15,011
−11,201
−7,146
−2,872
1,585
6,199
10,951
15,811
20,759
25,781
30,867
36,021
41,249
46,54
51,884
57,264
62,649
68,029
73,407
78,783
84,173
89,592
95,053
100,581
106,203
111,941
117,816
123,851
130,063
136,484
143,148
150,085
157,327
164,9
172,812
181,066
189,651
198,539
207,705
217,118
226,743
236,559
246,539
256,652
266,868
277,147
287,451
297,754
308,028
318,244
328,394
338,482
348,534
358,604
368,744
378,991
389,376
399,909
410,586
421,399
432,325
443,328
454,366
465,378
476,3
487,074
497,614
507,798
517,477
526,452
534,52
541,494
547,192
551,446
554,127
555,128
554,365
551,799
547,401
541,147
533,028
523,027
511,147
497,439
481,997
464,954
446,49
426,792
406,063
384,528
362,377
339,781
316,899
293,853
270,765
247,783
225,05
202,721
180,979
159,97
139,826
120,665
102,547
85,501
69,535
54,609
40,7
27,797
15,885
4,962
−4,979
−13,98
−22,086
−29,358
−35,902
−41,825
−47,242
−52,284
−57,039
−61,562
−65,897
−70,05
−74,026
−77,844
−81,512
−85,038
−88,434
−91,701
−94,836
−97,842
−100,686
−103,329
−105,725
−107,806
−109,535
−110,897
−111,884
−112,51
−112,796
−112,76
−112,429
−111,841
−111,023
−110,003
−108,807
−107,454
−105,973
−104,401
−102,775
−101,141
−99,535
−97,981
−96,499
−95,105
−93,808
−92,614
−91,523
−90,528
−89,628
−88,82
−88,104
−87,483
−86,954
−86,515
−86,162
−85,888
−85,688
−85,557
−85,49
−85,481
−85,525
−85,617
−85,754
−85,934
−86,153
−86,408
−86,693
−87,004
−87,337
−87,688
−88,052
−88,425
−88,803
−89,182
−89,561
−89,937
−90,31
−90,677
−91,038
−91,393
−91,741
−92,083
−92,419
−92,748
−93,072
−93,39
−93,704
−94,013
−94,32
−94,624
−94,928
−95,232
−95,538
−95,847
−96,16
−96,477
−96,8
−97,129
−97,464
−97,807
−98,158
−98,516
−98,883
−99,258
−99,641
−100,032
−100,432
−100,838
−101,251
−101,67
−102,094
−102,522
−102,953
−103,386
−103,82
−104,255
−104,689
−105,122
−105,552
−105,979
−106,402
−106,82
−107,232
−107,637
−108,035
−108,425
−108,807
−109,18
−109,544
−109,898
−110,244
−110,581
−110,909
−111,228
−111,538
−111,841
−112,135
−112,421
−112,7
−112,972
−113,237
−113,494
−113,746
−113,99
−114,229
−114,461
−114,687
−114,906
−115,119
−115,326
−115,526
−115,72
−115,906
−116,086
−116,258
−116,423
−116,581
−116,732
−116,874
−117,009
−117,135
−117,252
−117,359
−117,457
−117,545
−117,621
−117,686
−117,74
−117,781
−117,811
−117,828
−117,834
−117,827
−117,808
−117,777
−117,736
−117,683
−117,62
−117,548
−117,468
−117,38
−117,285
−117,185
−117,08
−116,972
−116,861
−116,748
−116,634
−116,519
−116,406
−116,294
−116,185
−116,08
−115,98
−115,885
−115,799
−115,72
−115,652
−115,595
−115,55
−115,518
−115,501
−115,5
−115,515
−115,547
−115,598
−115,669
−115,758
−115,868
−115,998
−116,149
−116,319
−116,509
−116,719
−116,948
−117,196
−117,461
−117,746
−118,048
−118,368
−118,706
−119,062
−119,435
−119,824
−120,229
−120,649
−121,082
−121,527
−121,982
−122,446
−122,916
−123,39
−123,865
−124,341
−124,812
−125,277
−125,732
−126,174
−126,599
−127,005
−127,387
−127,743
−128,07
−128,365
−128,624
−128,845
−129,024
−129,157
−129,242
−129,273
−129,245
−129,152
−128,989
−128,751
−128,433
−128,031
−127,539
−126,955
−126,277
−125,501
−124,628
−123,654
−122,578
−121,398
−120,112
−118,718
−117,215
−115,602
−113,878
−112,043
−110,096
−108,04
−105,879
−103,611
−101,238
−98,757
−96,171
−93,485
−90,71
−87,86
−84,951
−82,006
−79,052
−76,122
−73,251
−70,471
−67,81
−65,292
−62,939
−60,769
−58,803
−57,065
−55,565
−54,306
−53,279
−52,468
−51,854
−51,417
−51,121
−50,92
−50,768
−50,623
−50,456
−50,249
−49,996
−49,702
−49,376
−49,025
−48,679
−48,385
−48,203
−48,201
−48,439
−48,953
−49,79
−51,009
−52,659
−54,786
−57,423
−60,567
−64,195
−68,257
−72,692
−77,432
−82,399
−87,47
−92,492
−97,341
−101,961
−106,401
−110,797
−115,261
−119,866
−124,726
−129,997
−135,764
−142,031
−148,599
−155,001
−160,784
−165,566
−168,912
−170,362
−169,579
−166,366
−160,795
−153,361
−144,622
−135,101
−126,087
−119,528
−117,081
−120,205
−127,88
−136,44
−143,263
−146,101
−146,247
−149,086
−157,845
−174,64
−197,297
−216,882
−222,785
−202,721
−144,914
−43,473
100,033
277,715
474,906
673,762
860,066
1021,02
1145,987
1229,056
1264,352
1248,906
1186,706
1083,64
947,575
788,701
613,343
428,312
244,689
73,187
−73,466
−184,993
−260,68
−304,744
−325,63
−333,037
−331,1
−321,116
−303,126
−276,396
−243,189
−207,336
−172,333
−141,466
−116,339
−97,116
−83,609
−75,258
−71,302
−70,863
−72,845
−76,028
−79,325
−81,837
−82,842
−81,825
−78,534
−73,096
−65,944
−57,684
−48,962
−40,389
−32,504
−25,783
−20,604
−17,059
−15,009
−14,197
−14,283
−14,937
−15,879
−16,83
−17,52
−17,811
−17,66
−17,069
−16,091
−14,765
−13,111
−11,156
−8,931
−6,436
−3,652
−0,576
2,796
6,448
10,353
14,492
18,841
23,378
28,087
32,951
37,956
43,096
48,365
53,747
59,223
64,765
70,333
75,908
81,482
87,053
92,635
98,239
103,878
109,574
115,353
121,237
127,25
133,414
139,75
146,29
153,068
160,115
167,466
175,143
183,153
191,495
200,154
209,102
218,311
227,749
237,379
247,179
257,12
267,174
277,309
287,484
297,66
307,806
317,891
327,89
337,801
347,627
357,395
367,16
376,971
386,869
396,889
407,03
417,282
427,628
438,037
448,479
458,911
469,276
479,512
489,553
499,303
508,649
517,444
525,489
532,586
538,547
543,189
546,379
548,014
548,005
546,294
542,843
537,63
530,654
521,921
511,432
499,21
485,313
469,836
452,938
434,798
415,598
395,541
374,798
353,524
331,872
309,974
287,941
265,88
243,895
222,097
200,63
179,642
159,26
139,597
120,721
102,688
85,55
69,328
54,036
39,686
26,274
13,81
2,31
−8,213
−17,762
−26,353
−34,046
−40,921
−47,055
−52,534
−57,439
−61,854
−65,877
−69,579
−73,005
−76,193
−79,166
−81,951
−84,587
−87,104
−89,522
−91,854
−94,096
−96,232
−98,255
−100,14
−101,859
−103,374
−104,637
−105,618
−106,309
−106,716
−106,853
−106,734
−106,372
−105,785
−105
−104,044
−102,94
−101,714
−100,383
−98,973
−97,514
−96,04
−94,59
−93,193
−91,867
−90,625
−89,475
−88,423
−87,472
−86,622
−85,864
−85,193
−84,607
−84,105
−83,687
−83,353
−83,097
−82,914
−82,798
−82,743
−82,746
−82,802
−82,904
−83,05
−83,235
−83,458
−83,717
−84,012
−84,338
−84,693
−85,074
−85,479
−85,903
−86,344
−86,801
−87,269
−87,748
−88,237
−88,736
−89,244
−89,761
−90,289
−90,826
−91,374
−91,932
−92,501
−93,079
−93,668
−94,266
−94,875
−95,493
−96,121
−96,758
−97,405
−98,062
−98,727
−99,402
−100,084
−100,775
−101,472
−102,175
−102,884
−103,597
−104,314
−105,034
−105,757
−106,48
−107,204
−107,926
−108,645
−109,359
−110,068
−110,769
−111,46
−112,14
−112,808
−113,463
−114,103
−114,727
−115,334
−115,924
−116,496
−117,049
−117,584
−118,098
−118,592
−119,066
−119,52
−119,953
−120,366
−120,759
−121,131
−121,483
−121,816
−122,128
−122,421
−122,694
−122,949
−123,184
−123,402
−123,601
−123,783
−123,949
−124,098
−124,232
−124,351
−124,455
−124,545
−124,622
−124,685
−124,735
−124,772
−124,797
−124,809
−124,81
−124,798
−124,775
−124,741
−124,696
−124,639
−124,572
−124,493
−124,405
−124,306
−124,197
−124,079
−123,953
−123,819
−123,678
−123,531
−123,379
−123,222
−123,063
−122,901
−122,739
−122,578
−122,418
−122,263
−122,112
−121,967
−121,831
−121,704
−121,589
−121,486
−121,397
−121,323
−121,265
−121,225
−121,203
−121,202
−121,221
−121,262
−121,327
−121,416
−121,531
−121,671
−121,838
−122,031
−122,25
−122,497
−122,768
−123,065
−123,386
−123,729
−124,092
−124,474
−124,873
−125,284
−125,706
−126,135
−126,567
−127
−127,428
−127,849
−128,259
−128,653
−129,028
−129,381
−129,706
−129,999
−130,257
−130,474
−130,645
−130,765
−130,828
−130,827
−130,758
−130,615
−130,392
−130,085
−129,689
−129,202
−128,62
−127,941
−127,162
−126,282
−125,297
−124,205
−123,005
−121,695
−120,275
−118,744
−117,101
−115,345
−113,48
−111,505
−109,423
−107,233
−104,932
−102,522
−100,013
−97,415
−94,745
−92,023
−89,272
−86,522
−83,81
−81,168
−78,628
−76,221
−73,967
−71,896
−70,032
−68,393
−67,005
−65,882
−65,022
−64,421
−64,064
−63,913
−63,935
−64,076
−64,272
−64,479
−64,654
−64,757
−64,766
−64,646
−64,387
−64,012
−63,537
−62,978
−62,367
−61,709
−61,049
−60,512
−60,152
−59,991
−60,069
−60,351
−60,876
−61,806
−63,185
−64,967
−67,199
−69,928
−73,26
−77,459
−82,555
−88,352
−94,767
−101,724
−109,087
−116,766
−124,48
−131,735
−138,294
−144,09
−148,976
−152,902
−155,763
−157,344
−157,666
−156,886
−155,032
−152,226
−148,655
−144,404
−139,82
−135,488
−131,899
−129,682
−129,59
−132,159
−137,83
−147,127
−159,435
−172,837
−185,397
−194,408
−198,514
−198,685
−194,117
−183,025
−160,984
−119,456
−52,796
42,561
167,176
315,331
481,883
658,911
834,331
996,031
1126,648
1210,511
1239,062
1209,247
1129,356
1012,038
867,635
705,492
529,19
342,846
157,097
−15,268
−158,49
−260,943
−321,926
−346,285
−344,347
−327,591
−302,29
−274,063
−246,773
−221,093
−198,539
−178,278
−157,623
−136,494
−115,2
−95,233
−79,696
−69,438
−63,938
−62,113
−61,961
−62,456
−63,433
−64,696
−66,175
−67,609
−68,539
−68,876
−68,616
−67,578
−65,593
−62,424
−57,958
−52,421
−46,221
−39,636
−32,993
−26,736
−21,195
−16,76
−13,701
−11,964
−11,335
−11,568
−12,299
−13,099
−13,679
−13,75
−13,102
−11,684
−9,481
−6,545
−3,023
0,903
5,109
9,514
14,082
18,816
23,695
28,698
33,826
39,087
44,489
50,01
55,608
61,225
66,808
72,333
77,798
83,208
88,573
93,901
99,203
104,5
109,826
115,209
120,67
126,231
131,911
137,743
143,772
150,041
156,588
163,443
170,621
178,129
185,968
194,127
202,578
211,293
220,238
229,383
238,711
248,198
257,814
267,527
277,295
287,081
296,854
306,587
316,251
325,837
335,347
344,804
354,263
363,767
373,353
383,045
392,851
402,768
412,794
422,913
433,098
443,317
453,523
463,672
473,724
483,6
493,192
502,354
510,894
518,623
525,362
530,935
535,185
537,981
539,204
538,766
536,607
532,672
526,914
519,287
509,735
498,251
484,874
469,693
452,863
434,563
414,985
394,342
372,853
350,718
328,128
305,255
282,251
259,282
236,52
214,157
192,409
171,47
151,508
132,644
114,944
98,438
83,126
68,98
55,947
43,98
33,035
23,067
14,043
5,907
−1,41
−8,006
−14,009
−19,557
−24,787
−29,81
−34,701
−39,512
−44,268
−48,975
−53,625
−58,203
−62,696
−67,091
−71,381
−75,558
−79,606
−83,493
−87,174
−90,588
−93,668
−96,367
−98,655
−100,52
−101,963
−102,997
−103,643
−103,932
−103,9
−103,58
−103,003
−102,193
−101,176
−99,982
−98,647
−97,211
−95,72
−94,208
−92,704
−91,232
−89,807
−88,442
−87,147
−85,924
−84,77
−83,684
−82,668
−81,722
−80,852
−80,057
−79,338
−78,691
−78,116
−77,608
−77,167
−76,789
−76,473
−76,217
−76,019
−75,877
−75,792
−75,763
−75,787
−75,862
−75,985
−76,152
−76,361
−76,61
−76,895
−77,213
−77,562
−77,941
−78,347
−78,779
−79,236
−79,717
−80,222
−80,75
−81,3
−81,872
−82,467
−83,084
−83,723
−84,384
−85,066
−85,771
−86,497
−87,245
−88,014
−88,804
−89,615
−90,447
−91,299
−92,169
−93,058
−93,965
−94,887
−95,824
−96,774
−97,735
−98,707
−99,686
−100,672
−101,661
−102,651
−103,641
−104,627
−105,607
−106,578
−107,538
−108,484
−109,414
−110,324
−111,212
−112,077
−112,915
−113,724
−114,502
−115,248
−115,959
−116,635
−117,275
−117,877
−118,44
−118,965
−119,451
−119,899
−120,308
−120,679
−121,013
−121,311
−121,575
−121,806
−122,006
−122,177
−122,32
−122,438
−122,533
−122,606
−122,662
−122,7
−122,726
−122,739
−122,744
−122,743
−122,738
−122,731
−122,725
−122,722
−122,724
−122,733
−122,75
−122,778
−122,816
−122,867
−122,93
−123,008
−123,099
−123,205
−123,325
−123,458
−123,605
−123,765
−123,936
−124,118
−124,309
−124,508
−124,713
−124,923
−125,137
−125,353
−125,569
−125,784
−125,996
−126,202
−126,401
−126,591
−126,77
−126,937
−127,09
−127,227
−127,348
−127,451
−127,535
−127,6
−127,645
−127,671
−127,677
−127,664
−127,633
−127,584
−127,518
−127,437
−127,343
−127,237
−127,121
−126,998
−126,869
−126,736
−126,601
−126,467
−126,335
−126,207
−126,086
−125,973
−125,87
−125,78
−125,706
−125,648
−125,609
−125,591
−125,596
−125,625
−125,678
−125,757
−125,861
−125,991
−126,145
−126,324
−126,525
−126,747
−126,986
−127,241
−127,507
−127,782
−128,059
−128,337
−128,608
−128,87
−129,117
−129,343
−129,545
−129,718
−129,855
−129,953
−130,004
−130,005
−129,949
−129,831
−129,643
−129,379
−129,032
−128,597
−128,068
−127,438
−126,702
−125,858
−124,9
−123,827
−122,638
−121,33
−119,904
−118,357
−116,69
−114,903
−112,996
−110,971
−108,828
−106,57
−104,198
−101,72
−99,139
−96,462
−93,692
−90,831
−87,886
−84,87
−81,797
−78,687
−75,562
−72,45
−69,382
−66,397
−63,533
−60,825
−58,302
−55,988
−53,906
−52,074
−50,511
−49,237
−48,26
−47,578
−47,179
−47,042
−47,137
−47,428
−47,866
−48,387
−48,936
−49,472
−49,963
−50,389
−50,74
−51,02
−51,236
−51,397
−51,522
−51,629
−51,751
−51,937
−52,24
−52,725
−53,46
−54,514
−55,934
−57,743
−59,941
−62,53
−65,468
−68,659
−72,045
−75,595
−79,334
−83,403
−87,913
−92,891
−98,414
−104,59
−111,416
−118,835
−126,605
−134,172
−141,046
−146,84
−151,121
−153,549
−153,892
−151,946
−147,852
−142,244
−135,769
−129,131
−123,163
−118,583
−116,165
−116,734
−120,871
−128,761
−140,392
−155,512
−172,787
−189,709
−203,432
−210,737
−210,265
−203,481
−191,255
−172,969
−143,977
−95,123
−17,668
93,471
236,593
404,324
585,343
766,404
935,069
1076,317
1175,744
1223,501
1214,907
1155,747
1058,494
934,996
793,822
637,883
468,256
291,225
119,905
−29,101
−142,344
−216,372
−257,427
−276,353
−282,104
−277,108
−260,607
−232,832
−197,57
−162,442
−133,888
−113,993
−100,549
−89,694
−79,084
−68,858
−61,363
−58,184
−59,015
−62,637
−66,998
−70,729
−73,596
−75,628
−76,786
−76,894
−75,809
−73,499
−70,203
−66,244
−61,669
−56,322
−50,287
−43,894
−37,495
−31,534
−26,226
−21,519
−17,504
−14,424
−12,339
−11,148
−10,62
−10,314
−9,942
−9,441
−8,704
−7,609
−6,105
−4,142
−1,766
0,853
3,64
6,585
9,671
12,927
16,368
19,98
23,786
27,821
32,086
36,585
41,307
46,224
51,321
56,581
61,979
67,487
73,07
78,701
84,369
90,069
95,801
101,57
107,385
113,259
119,217
125,282
131,477
137,829
144,364
151,112
158,102
165,362
172,922
180,795
188,988
197,49
206,281
215,334
224,626
234,126
243,81
253,649
263,611
273,664
283,768
293,885
303,983
314,029
323,996
333,875
343,665
353,387
363,088
372,808
382,583
392,438
402,374
412,379
422,436
432,515
442,588
452,616
462,548
472,333
481,912
491,199
500,093
508,459
516,114
522,877
528,572
533,024
536,106
537,722
537,787
536,245
533,059
528,202
521,662
513,429
503,493
491,865
478,583
463,724
447,427
429,85
411,167
391,578
371,252
350,344
329,001
307,348
285,502
263,572
241,681
219,961
198,564
177,655
157,387
137,89
119,26
101,577
84,884
69,191
54,504
40,823
28,147
16,484
5,84
−3,787
−12,416
−20,089
−26,877
−32,874
−38,19
−42,935
−47,22
−51,159
−54,835
−58,299
−61,595
−64,742
−67,767
−70,697
−73,555
−76,359
−79,121
−81,841
−84,509
−87,106
−89,597
−91,94
−94,083
−95,967
−97,557
−98,836
−99,799
−100,459
−100,83
−100,925
−100,765
−100,377
−99,785
−99,014
−98,086
−97,021
−95,848
−94,599
−93,311
−92,024
−90,77
−89,569
−88,438
−87,387
−86,42
−85,542
−84,753
−84,045
−83,415
−82,861
−82,383
−81,982
−81,659
−81,41
−81,232
−81,119
−81,068
−81,076
−81,138
−81,252
−81,415
−81,624
−81,877
−82,175
−82,517
−82,899
−83,32
−83,775
−84,263
−84,78
−85,323
−85,888
−86,473
−87,075
−87,693
−88,324
−88,968
−89,624
−90,29
−90,965
−91,649
−92,339
−93,036
−93,736
−94,439
−95,144
−95,847
−96,55
−97,249
−97,943
−98,632
−99,314
−99,987
−100,651
−101,305
−101,946
−102,575
−103,189
−103,789
−104,374
−104,944
−105,497
−106,034
−106,554
−107,058
−107,545
−108,014
−108,467
−108,901
−109,319
−109,718
−110,1
−110,465
−110,812
−111,144
−111,459
−111,759
−112,045
−112,318
−112,577
−112,825
−113,063
−113,29
−113,51
−113,722
−113,928
−114,13
−114,327
−114,522
−114,714
−114,905
−115,096
−115,286
−115,476
−115,667
−115,858
−116,05
−116,244
−116,438
−116,633
−116,83
−117,027
−117,225
−117,423
−117,621
−117,819
−118,016
−118,212
−118,408
−118,602
−118,794
−118,984
−119,172
−119,357
−119,539
−119,718
−119,892
−120,062
−120,227
−120,386
−120,541
−120,689
−120,832
−120,968
−121,099
−121,224
−121,344
−121,457
−121,566
−121,669
−121,768
−121,861
−121,951
−122,036
−122,117
−122,195
−122,27
−122,341
−122,41
−122,474
−122,535
−122,592
−122,645
−122,693
−122,736
−122,773
−122,804
−122,829
−122,847
−122,858
−122,862
−122,858
−122,846
−122,826
−122,797
−122,759
−122,712
−122,655
−122,589
−122,512
−122,425
−122,327
−122,219
−122,101
−121,972
−121,832
−121,682
−121,522
−121,352
−121,174
−120,988
−120,795
−120,597
−120,395
−120,191
−119,987
−119,784
−119,585
−119,391
−119,205
−119,026
−118,858
−118,702
−118,559
−118,431
−118,319
−118,225
−118,148
−118,092
−118,057
−118,044
−118,054
−118,088
−118,145
−118,227
−118,334
−118,465
−118,62
−118,799
−119
−119,222
−119,463
−119,722
−119,994
−120,278
−120,569
−120,864
−121,158
−121,448
−121,728
−121,994
−122,242
−122,466
−122,663
−122,828
−122,956
−123,042
−123,082
−123,069
−122,999
−122,866
−122,663
−122,384
−122,025
−121,579
−121,042
−120,408
−119,673
−118,835
−117,891
−116,838
−115,675
−114,4
−113,011
−111,507
−109,888
−108,153
−106,303
−104,337
−102,255
−100,061
−97,759
−95,351
−92,838
−90,224
−87,506
−84,69
−81,785
−78,801
−75,753
−72,661
−69,548
−66,445
−63,39
−60,418
−57,562
−54,852
−52,311
−49,966
−47,842
−45,959
−44,341
−42,998
−41,931
−41,135
−40,601
−40,3
−40,2
−40,257
−40,403
−40,588
−40,766
−40,901
−40,972
−40,962
−40,862
−40,68
−40,43
−40,136
−39,846
−39,6
−39,442
−39,434
−39,634
−40,117
−40,98
−42,292
−44,093
−46,407
−49,229
−52,54
−56,316
−60,49
−64,947
−69,606
−74,419
−79,38
−84,558
−89,985
−95,64
−101,555
−107,793
−114,314
−121,013
−127,688
−133,964
−139,555
−144,332
−148,032
−150,401
−151,458
−151,167
−149,5
−146,705
−142,862
−138,469
−134,906
−133,108
−133,006
−132,852
−129,97
−123,734
−116,521
−114,152
−121,996
−140,273
−164,931
−187,78
−202,083
−207,17
−203,891
−193,517
−173,398
−134,253
−68,15
29,831
159,191
311,656
479,231
653,489
824,827
984,753
1119,566
1214,329
1258,327
1245,753
1181,435
1077,289
945,148
794,032
627,962
449,38
265,559
90,251
−59,94
−172,089
−243,528
−281,204
−296,845
−299,922
−292,037
−271,905
−238,473
−194,766
−151,094
−116,032
−93,997
−84,527
−80,732
−77,692
−73,81
−69,518
−67,887
−69,883
−74,356
−79,846
−84,209
−86,332
−86,036
−83,119
−77,901
−70,956
−62,807
−54,109
−45,472
−37,334
−30,148
−24,359
−20,128
−17,388
−15,934
−15,435
−15,57
−16,087
−16,741
−17,287
−17,593
−17,597
−17,262
−16,604
−15,645
−14,391
−12,857
−11,054
−8,959
−6,533
−3,772
−0,681
2,716
6,38
10,3
14,47
18,878
23,504
28,322
33,306
38,447
43,742
49,172
54,707
60,305
65,915
71,513
77,098
82,673
88,247
93,83
99,428
105,064
110,764
116,556
122,462
128,497
134,677
141,028
147,585
154,393
161,495
168,92
176,684
184,8
193,268
202,083
211,227
220,665
230,358
240,271
250,373
260,643
271,054
281,571
292,154
302,759
313,341
323,867
334,303
344,615
354,783
364,806
374,698
384,505
394,267
404,013
413,765
423,529
433,299
443,064
452,806
462,494
472,091
481,55
490,825
499,875
508,635
517,01
524,875
532,063
538,399
543,722
547,87
550,693
552,069
551,901
550,108
546,651
541,501
534,627
526,006
515,606
503,412
489,451
473,793
456,548
437,862
417,891
396,82
374,855
352,184
328,979
305,4
281,574
257,631
233,724
210,016
186,686
163,933
141,93
120,826
100,757
81,83
64,111
47,632
32,382
18,34
5,494
−6,165
−16,645
−25,954
−34,141
−41,27
−47,426
−52,726
−57,294
−61,257
−64,755
−67,924
−70,861
−73,638
−76,29
−78,836
−81,299
−83,704
−86,071
−88,415
−90,737
−93,028
−95,278
−97,461
−99,538
−101,461
−103,172
−104,605
−105,721
−106,502
−106,945
−107,067
−106,883
−106,41
−105,674
−104,706
−103,535
−102,191
−100,699
−99,084
−97,376
−95,614
−93,835
−92,084
−90,394
−88,786
−87,277
−85,878
−84,595
−83,431
−82,384
−81,447
−80,615
−79,887
−79,259
−78,733
−78,308
−77,979
−77,74
−77,585
−77,51
−77,51
−77,58
−77,714
−77,91
−78,162
−78,469
−78,828
−79,238
−79,692
−80,189
−80,722
−81,288
−81,882
−82,499
−83,135
−83,786
−84,449
−85,119
−85,796
−86,476
−87,158
−87,841
−88,522
−89,2
−89,875
−90,545
−91,209
−91,866
−92,515
−93,156
−93,786
−94,407
−95,016
−95,615
−96,203
−96,779
−97,344
−97,897
−98,438
−98,968
−99,485
−99,99
−100,484
−100,966
−101,436
−101,895
−102,344
−102,782
−103,21
−103,628
−104,036
−104,434
−104,823
−105,201
−105,57
−105,929
−106,278
−106,617
−106,947
−107,268
−107,579
−107,88
−108,173
−108,458
−108,734
−109,002
−109,263
−109,516
−109,762
−110,002
−110,236
−110,464
−110,687
−110,905
−111,119
−111,33
−111,537
−111,742
−111,945
−112,146
−112,345
−112,544
−112,742
−112,939
−113,136
−113,333
−113,53
−113,728
−113,927
−114,127
−114,328
−114,53
−114,733
−114,938
−115,143
−115,35
−115,557
−115,765
−115,974
−116,182
−116,391
−116,599
−116,807
−117,014
−117,22
−117,425
−117,627
−117,827
−118,024
−118,217
−118,407
−118,593
−118,775
−118,952
−119,123
−119,29
−119,451
−119,605
−119,753
−119,895
−120,029
−120,156
−120,276
−120,388
−120,493
−120,59
−120,68
−120,762
−120,836
−120,903
−120,963
−121,016
−121,062
−121,101
−121,133
−121,158
−121,178
−121,191
−121,198
−121,199
−121,194
−121,184
−121,168
−121,146
−121,119
−121,087
−121,05
−121,008
−120,962
−120,912
−120,86
−120,804
−120,747
−120,688
−120,628
−120,567
−120,507
−120,448
−120,39
−120,335
−120,283
−120,234
−120,189
−120,148
−120,112
−120,082
−120,056
−120,037
−120,024
−120,019
−120,021
−120,033
−120,054
−120,085
−120,128
−120,182
−120,248
−120,326
−120,415
−120,516
−120,627
−120,748
−120,878
−121,016
−121,161
−121,31
−121,463
−121,616
−121,768
−121,916
−122,056
−122,186
−122,303
−122,403
−122,483
−122,541
−122,573
−122,576
−122,546
−122,48
−122,373
−122,22
−122,016
−121,754
−121,429
−121,036
−120,569
−120,024
−119,395
−118,68
−117,875
−116,978
−115,989
−114,904
−113,722
−112,439
−111,053
−109,562
−107,963
−106,255
−104,437
−102,506
−100,464
−98,315
−96,063
−93,711
−91,26
−88,709
−86,062
−83,328
−80,516
−77,641
−74,722
−71,776
−68,834
−65,933
−63,111
−60,408
−57,85
−55,453
−53,234
−51,21
−49,399
−47,818
−46,472
−45,35
−44,448
−43,763
−43,288
−43,014
−42,91
−42,916
−42,981
−43,06
−43,125
−43,178
−43,221
−43,256
−43,299
−43,381
−43,549
−43,881
−44,427
−45,208
−46,245
−47,55
−49,167
−51,177
−53,639
−56,58
−60,004
−63,875
−68,143
−72,772
−77,677
−82,711
−87,736
−92,628
−97,343
−101,972
−106,619
−111,339
−116,206
−121,315
−126,688
−132,302
−138,006
−143,398
−148,07
−151,745
−154,113
−154,878
−153,918
−151,141
−146,634
−140,899
−134,496
−127,88
−121,689
−116,626
−113,3
−112,489
−114,824
−120,541
−129,778
−142,543
−158,469
−176,245
−193,466
−207,243
−214,24
−212,654
−203,003
−185,191
−158,757
−120,998
−65,022
15,403
124,564
263,81
428,555
610,278
797,657
975,764
1127,629
1237,322
1292,646
1288,96
1231,846
1133,026
1005,294
858,507
696,191
519,7
334,542
151,92
−11,445
−139,659
−226,825
−276,523
−299,106
−305,953
−300,048
−279,832
−244,24
−195,067
−142,943
−100,631
−75,197
−67,916
−71,927
−77,592
−79,96
−77,881
−73,74
−71,3
−71,366
−72,869
−74,37
−74,264
−72,353
−69,271
−65,319
−60,843
−56,095
−51,235
−46,496
−41,997
−37,553
−32,916
−28,156
−23,503
−19,244
−15,542
−12,321
−9,505
−7,196
−5,574
−4,641
−4,194
−3,852
−3,326
−2,537
−1,46
−0,064
1,746
4,054
6,822
9,908
13,205
16,661
20,263
24,041
27,986
32,063
36,271
40,614
45,102
49,748
54,547
59,476
64,524
69,674
74,91
80,218
85,566
90,933
96,314
101,703
107,11
112,548
118,03
123,574
129,208
134,954
140,84
146,895
153,147
159,631
166,376
173,411
180,77
188,473
196,525
204,922
213,643
222,661
231,955
241,497
251,262
261,224
271,35
281,607
291,957
302,364
312,798
323,228
333,619
343,957
354,244
364,499
374,77
385,103
395,528
406,072
416,746
427,542
438,452
449,452
460,504
471,567
482,588
493,509
504,28
514,823
525,026
534,748
543,803
551,995
559,144
565,07
569,603
572,612
573,987
573,644
571,541
567,639
561,901
554,305
544,818
533,426
520,164
505,104
488,364
470,106
450,507
429,766
408,11
385,731
362,803
339,486
315,909
292,204
268,534
245,055
221,941
199,391
177,572
156,635
136,719
117,901
100,221
83,693
68,278
53,954
40,711
28,53
17,407
7,327
−1,76
−9,909
−17,188
−23,718
−29,615
−35,006
−40,037
−44,802
−49,364
−53,768
−58,022
−62,131
−66,114
−69,976
−73,722
−77,36
−80,886
−84,292
−87,575
−90,698
−93,617
−96,278
−98,611
−100,573
−102,149
−103,33
−104,128
−104,565
−104,659
−104,439
−103,945
−103,204
−102,247
−101,103
−99,793
−98,348
−96,807
−95,211
−93,607
−92,033
−90,512
−89,069
−87,719
−86,472
−85,334
−84,308
−83,388
−82,571
−81,858
−81,249
−80,746
−80,349
−80,055
−79,86
−79,758
−79,746
−79,818
−79,969
−80,195
−80,49
−80,85
−81,272
−81,753
−82,289
−82,877
−83,512
−84,187
−84,898
−85,64
−86,408
−87,196
−87,999
−88,812
−89,633
−90,458
−91,283
−92,106
−92,924
−93,736
−94,539
−95,331
−96,112
−96,88
−97,634
−98,372
−99,094
−99,799
−100,487
−101,157
−101,811
−102,448
−103,069
−103,674
−104,264
−104,838
−105,398
−105,944
−106,477
−106,997
−107,505
−108,002
−108,488
−108,965
−109,432
−109,891
−110,342
−110,787
−111,224
−111,656
−112,081
−112,501
−112,917
−113,327
−113,734
−114,137
−114,536
−114,932
−115,326
−115,717
−116,106
−116,492
−116,877
−117,259
−117,64
−118,019
−118,396
−118,772
−119,146
−119,52
−119,894
−120,266
−120,639
−121,011
−121,383
−121,756
−122,128
−122,501
−122,873
−123,246
−123,617
−123,988
−124,359
−124,727
−125,094
−125,458
−125,819
−126,177
−126,531
−126,881
−127,225
−127,564
−127,897
−128,223
−128,543
−128,855
−129,159
−129,454
−129,741
−130,019
−130,287
−130,544
−130,791
−131,026
−131,25
−131,461
−131,659
−131,845
−132,018
−132,178
−132,325
−132,459
−132,581
−132,691
−132,79
−132,878
−132,955
−133,024
−133,084
−133,136
−133,182
−133,223
−133,259
−133,291
−133,32
−133,347
−133,373
−133,399
−133,425
−133,452
−133,48
−133,511
−133,546
−133,584
−133,627
−133,675
−133,729
−133,79
−133,857
−133,932
−134,015
−134,105
−134,203
−134,309
−134,422
−134,542
−134,669
−134,802
−134,94
−135,082
−135,228
−135,377
−135,528
−135,68
−135,833
−135,986
−136,139
−136,292
−136,444
−136,595
−136,746
−136,897
−137,047
−137,199
−137,351
−137,504
−137,658
−137,815
−137,973
−138,134
−138,298
−138,465
−138,636
−138,811
−138,99
−139,174
−139,365
−139,563
−139,768
−139,983
−140,206
−140,441
−140,686
−140,942
−141,21
−141,489
−141,779
−142,079
−142,388
−142,704
−143,025
−143,349
−143,673
−143,993
−144,307
−144,611
−144,9
−145,171
−145,419
−145,641
−145,831
−145,987
−146,103
−146,174
−146,197
−146,167
−146,078
−145,924
−145,701
−145,402
−145,02
−144,55
−143,986
−143,322
−142,554
−141,677
−140,687
−139,584
−138,363
−137,025
−135,566
−133,987
−132,286
−130,462
−128,515
−126,446
−124,255
−121,943
−119,513
−116,97
−114,317
−111,56
−108,702
−105,745
−102,693
−99,557
−96,353
−93,098
−89,814
−86,528
−83,272
−80,085
−77,005
−74,069
−71,307
−68,744
−66,402
−64,302
−62,461
−60,902
−59,636
−58,659
−57,963
−57,528
−57,326
−57,325
−57,476
−57,717
−57,988
−58,243
−58,45
−58,591
−58,657
−58,651
−58,581
−58,46
−58,314
−58,175
−58,081
−58,082
−58,232
−58,593
−59,238
−60,241
−61,655
−63,51
−65,808
−68,538
−71,662
−75,088
−78,742
−82,58
−86,596
−90,867
−95,479
−100,44
−105,788
−111,615
−117,904
−124,565
−131,393
−137,944
−143,783
−148,637
−152,203
−154,179
−154,446
−152,926
−149,714
−145,279
−140,14
−134,702
−129,473
−125,003
−121,765
−120,358
−121,292
−124,861
−131,34
−140,935
−153,722
−168,694
−183,505
−195,549
−201,853
−201,439
−196,151
−186,128
−169,847
−141,738
−91,112
−10,618
103,284
248,477
415,519
595,99
780,378
957,903
1117,809
1243,882
1321,357
1340,226
1296,802
1198,699
1057,112
885,005
695,365
497,065
301,803
121,737
−32,308
−149,358
−226,909
−268,833
−281,793
−277,417
−264,157
−246,215
−227,388
−206,592
−182,152
−155,35
−126,594
−98,708
−75,882
−59,431
−49,828
−46,311
−46,428
−48,514
−51,575
−54,521
−56,882
−58,358
−58,578
−57,622
−55,709
−53,056
−50,011
−46,872
−43,665
−40,439
−37,174
−33,572
−29,551
−25,128
−20,241
−15,071
−9,973
−5,122
−0,749
2,792
5,398
7,075
7,859
8,041
8,011
7,997
8,196
8,814
9,928
11,581
13,802
16,499
19,513
22,756
26,184
29,767
33,526
37,47
41,58
45,867
50,355
55,048
59,944
65,029
70,264
75,616
81,06
86,558
92,088
97,644
103,215
108,804
114,42
120,069
125,77
131,552
137,437
143,447
149,608
155,943
162,484
169,27
176,334
183,71
191,422
199,484
207,902
216,673
225,778
235,189
244,871
254,785
264,897
275,18
285,592
296,098
306,654
317,213
327,739
338,198
348,55
358,759
368,795
378,65
388,354
397,964
407,539
417,119
426,716
436,339
446,022
455,753
465,489
475,131
484,493
493,477
502,099
510,373
518,296
525,876
533,052
539,869
546,543
553,065
559,199
564,619
568,843
571,455
572,196
570,621
566,119
558,366
547,292
533,098
516,337
497,461
476,793
454,847
432,238
409,425
386,733
364,219
341,664
318,974
296,19
273,337
250,459
227,654
205,07
182,963
161,69
141,516
122,582
104,95
88,619
73,556
59,724
47,072
35,532
25,049
15,587
7,099
−0,462
−7,166
−13,133
−18,492
−23,382
−27,95
−32,304
−36,514
−40,629
−44,663
−48,61
−52,476
−56,259
−59,956
−63,57
−67,094
−70,518
−73,832
−77,003
−79,983
−82,716
−85,132
−87,186
−88,856
−90,131
−91,024
−91,555
−91,744
−91,621
−91,224
−90,583
−89,73
−88,693
−87,494
−86,165
−84,744
−83,27
−81,791
−80,341
−78,947
−77,63
−76,404
−75,278
−74,258
−73,344
−72,531
−71,815
−71,194
−70,668
−70,237
−69,901
−69,655
−69,495
−69,414
−69,406
−69,468
−69,594
−69,778
−70,016
−70,304
−70,637
−71,015
−71,433
−71,886
−72,37
−72,879
−73,408
−73,952
−74,506
−75,066
−75,626
−76,183
−76,733
−77,274
−77,805
−78,321
−78,823
−79,308
−79,776
−80,226
−80,658
−81,071
−81,465
−81,841
−82,197
−82,536
−82,857
−83,162
−83,451
−83,724
−83,984
−84,231
−84,466
−84,69
−84,905
−85,112
−85,312
−85,507
−85,698
−85,887
−86,074
−86,261
−86,45
−86,641
−86,835
−87,033
−87,236
−87,443
−87,656
−87,875
−88,101
−88,332
−88,571
−88,817
−89,069
−89,329
−89,595
−89,868
−90,148
−90,434
−90,726
−91,024
−91,329
−91,64
−91,957
−92,28
−92,608
−92,941
−93,279
−93,622
−93,968
−94,317
−94,669
−95,024
−95,381
−95,74
−96,1
−96,46
−96,822
−97,183
−97,544
−97,904
−98,262
−98,62
−98,975
−99,329
−99,68
−100,029
−100,375
−100,72
−101,061
−101,399
−101,735
−102,066
−102,394
−102,718
−103,038
−103,353
−103,664
−103,969
−104,27
−104,567
−104,858
−105,145
−105,427
−105,704
−105,976
−106,244
−106,508
−106,766
−107,021
−107,271
−107,517
−107,759
−107,997
−108,231
−108,461
−108,687
−108,908
−109,125
−109,337
−109,546
−109,75
−109,951
−110,149
−110,345
−110,539
−110,733
−110,927
−111,122
−111,319
−111,52
−111,725
−111,935
−112,151
−112,374
−112,606
−112,848
−113,099
−113,362
−113,635
−113,921
−114,22
−114,533
−114,859
−115,2
−115,558
−115,931
−116,323
−116,733
−117,162
−117,61
−118,077
−118,565
−119,07
−119,594
−120,135
−120,69
−121,259
−121,839
−122,427
−123,021
−123,617
−124,212
−124,802
−125,384
−125,953
−126,505
−127,035
−127,54
−128,014
−128,455
−128,857
−129,216
−129,527
−129,786
−129,988
−130,127
−130,197
−130,192
−130,105
−129,931
−129,663
−129,297
−128,827
−128,251
−127,563
−126,764
−125,852
−124,827
−123,687
−122,429
−121,054
−119,56
−117,947
−116,217
−114,369
−112,403
−110,323
−108,136
−105,849
−103,468
−100,998
−98,439
−95,801
−93,095
−90,338
−87,55
−84,753
−81,972
−79,239
−76,597
−74,086
−71,744
−69,599
−67,663
−65,953
−64,486
−63,275
−62,342
−61,689
−61,304
−61,174
−61,289
−61,627
−62,167
−62,864
−63,649
−64,47
−65,285
−66,067
−66,823
−67,559
−68,276
−68,988
−69,702
−70,437
−71,237
−72,131
−73,139
−74,299
−75,639
−77,197
−79,039
−81,194
−83,67
−86,469
−89,535
−92,774
−96,138
−99,604
−103,2
−107,052
−111,246
−115,81
−120,835
−126,444
−132,668
−139,455
−146,568
−153,511
−159,838
−165,287
−169,55
−172,317
−173,401
−172,607
−169,951
−165,914
−161,007
−155,566
−150,109
−145,244
−141,535
−139,824
−140,947
−145,323
−153,268
−165,178
−180,366
−196,826
−212,187
−223,203
−228,032
−227,683
−222,497
−211,808
−191,436
−152,064
−85,481
14,45
148,563
310,107
491,256
680,498
864,222
1029,421
1158,245
1236,173
1255,82
1215,855
1126,807
1002,209
852,08
684,529
502,38
310,739
122,109
−47,953
−183,113
−275,122
−327,339
−350,314
−357,665
−357,737
−352,241
−339,556
−316,978
−285,545
−249,414
−213,187
−181,039
−154,849
−134,828
−120,771
−112,073
−108,054
−107,777
−109,958
−113,407
−117,136
−120,262
−122,082
−121,979
−119,487
−114,689
−108,07
−100,198
−91,69
−83,13
−75,014
−67,89
−62,293
−58,391
−56,055
−55,029
−54,937
−55,44
−56,288
−57,19
−57,837
−58,053
−57,759
−56,941
−55,666
−53,987
−51,911
−49,461
−46,655
−43,487
−39,981
−36,168
−32,071
−27,73
−23,177
−18,431
−13,525
−8,496
−3,368
1,838
7,114
12,464
17,873
23,315
28,759
34,165
39,516
44,815
50,07
55,294
60,502
65,711
70,945
76,239
81,623
87,12
92,748
98,522
104,471
110,629
117,041
123,75
130,784
138,164
145,903
154,005
162,464
171,267
180,379
189,765
199,393
209,235
219,269
229,474
239,816
250,257
260,754
271,266
281,762
292,209
302,574
312,841
323,006
333,085
343,122
353,154
363,207
373,298
383,427
393,584
403,753
413,913
424,026
434,053
443,944
453,648
463,119
472,29
481,062
489,308
496,863
503,553
509,223
513,716
516,888
518,631
518,852
517,483
514,494
509,856
503,542
495,538
485,817
474,368
461,226
446,459
430,175
412,523
393,664
373,776
353,063
331,698
309,836
287,625
265,179
242,62
220,099
197,762
175,775
154,327
133,58
113,68
94,765
76,914
60,175
44,566
30,061
16,646
4,316
−6,939
−17,12
−26,24
−34,346
−41,492
−47,747
−53,23
−58,059
−62,364
−66,293
−69,947
−73,395
−76,69
−79,848
−82,884
−85,821
−88,674
−91,452
−94,169
−96,823
−99,41
−101,929
−104,344
−106,612
−108,676
−110,467
−111,938
−113,071
−113,855
−114,298
−114,418
−114,23
−113,76
−113,041
−112,101
−110,967
−109,663
−108,208
−106,632
−104,97
−103,263
−101,554
−99,88
−98,264
−96,728
−95,284
−93,943
−92,708
−91,581
−90,554
−89,623
−88,787
−88,045
−87,399
−86,848
−86,388
−86,014
−85,721
−85,503
−85,356
−85,276
−85,256
−85,292
−85,381
−85,518
−85,702
−85,93
−86,197
−86,5
−86,833
−87,192
−87,572
−87,97
−88,381
−88,8
−89,224
−89,65
−90,076
−90,5
−90,92
−91,335
−91,744
−92,146
−92,54
−92,927
−93,306
−93,677
−94,039
−94,392
−94,738
−95,075
−95,406
−95,73
−96,049
−96,363
−96,674
−96,984
−97,292
−97,6
−97,911
−98,223
−98,539
−98,859
−99,184
−99,515
−99,852
−100,197
−100,549
−100,909
−101,277
−101,652
−102,034
−102,424
−102,819
−103,219
−103,624
−104,033
−104,445
−104,858
−105,273
−105,687
−106,101
−106,512
−106,92
−107,323
−107,719
−108,108
−108,488
−108,857
−109,214
−109,557
−109,885
−110,196
−110,489
−110,763
−111,016
−111,249
−111,458
−111,645
−111,808
−111,946
−112,059
−112,147
−112,209
−112,246
−112,257
−112,243
−112,204
−112,141
−112,054
−111,943
−111,809
−111,652
−111,475
−111,276
−111,059
−110,822
−110,569
−110,301
−110,018
−109,723
−109,418
−109,104
−108,783
−108,457
−108,128
−107,798
−107,469
−107,143
−106,821
−106,506
−106,198
−105,901
−105,614
−105,341
−105,081
−104,837
−104,609
−104,398
−104,205
−104,03
−103,876
−103,742
−103,628
−103,536
−103,465
−103,416
−103,388
−103,382
−103,396
−103,432
−103,487
−103,562
−103,656
−103,767
−103,895
−104,038
−104,195
−104,366
−104,548
−104,74
−104,941
−105,15
−105,366
−105,586
−105,811
−106,039
−106,269
−106,5
−106,731
−106,961
−107,188
−107,413
−107,633
−107,848
−108,058
−108,261
−108,458
−108,647
−108,829
−109,003
−109,168
−109,326
−109,475
−109,615
−109,746
−109,869
−109,983
−110,089
−110,185
−110,274
−110,353
−110,422
−110,482
−110,532
−110,57
−110,595
−110,605
−110,6
−110,577
−110,536
−110,475
−110,392
−110,285
−110,154
−109,997
−109,81
−109,592
−109,339
−109,049
−108,718
−108,343
−107,92
−107,444
−106,911
−106,318
−105,661
−104,936
−104,139
−103,268
−102,32
−101,293
−100,184
−98,992
−97,712
−96,342
−94,88
−93,326
−91,678
−89,937
−88,099
−86,167
−84,143
−82,029
−79,826
−77,534
−75,146
−72,665
−70,098
−67,458
−64,758
−62,019
−59,262
−56,518
−53,826
−51,221
−48,736
−46,393
−44,208
−42,2
−40,393
−38,813
−37,493
−36,451
−35,688
−35,206
−34,999
−35,046
−35,311
−35,736
−36,233
−36,737
−37,203
−37,6
−37,921
−38,155
−38,286
−38,304
−38,2
−37,971
−37,63
−37,178
−36,617
−35,985
−35,345
−34,797
−34,483
−34,492
−34,872
−35,647
−36,807
−38,356
−40,274
−42,494
−44,985
−47,754
−50,877
−54,534
−58,883
−63,992
−69,938
−76,787
−84,48
−92,944
−101,907
−110,832
−119,278
−126,853
−133,114
−137,71
−140,289
−140,487
−138,394
−134,547
−129,302
−123,237
−117,167
−111,64
−108,064
−108,009
−111,572
−118,891
−129,061
−139,737
−150,244
−159,537
−166,578
−172,499
−176,93
−177,893
−172,029
−151,756
−108,249
−35,97
67,63
199,68
352,09
518,077
689,863
858,496
1015,425
1146,406
1237,017
1277,091
1260,58
1192,653
1084,377
946,771
791,307
623,693
447,891
272,226
106,244
−37,493
−147,919
−223,387
−268,126
−290,507
−299,521
−297,086
−281,5
−251,836
−209,558
−162,793
−121,785
−92,813
−77,193
−70,162
−65,61
−60,319
−54,073
−49,369
−47,885
−49,34
−52,424
−55,093
−56,28
−55,955
−54,27
−51,754
−49,009
−46,373
−44,193
−42,69
−41,733
−41,202
−40,989
−40,761
−40,138
−38,873
−36,778
−33,888
−30,565
−27,055
−23,516
−20,238
−17,409
−15,111
−13,417
−12,176
−11,032
−9,778
−8,282
−6,38
−4,038
−1,242
2,051
5,74
9,657
13,713
17,839
21,987
26,182
30,433
34,737
39,13
43,642
48,287
53,087
58,035
63,111
68,292
73,545
78,848
84,203
89,608
95,073
100,61
106,225
111,933
117,758
123,717
129,83
136,117
142,595
149,293
156,24
163,466
171,003
178,872
187,077
195,618
204,481
213,639
223,064
232,724
242,586
252,621
262,802
273,091
283,455
293,85
304,235
314,577
324,842
334,995
345,022
354,921
364,71
374,433
384,128
393,822
403,536
413,271
423,021
432,781
442,532
452,244
461,886
471,413
480,781
489,954
498,861
507,4
515,436
522,789
529,284
534,758
539,051
542,021
543,55
543,534
541,895
538,585
533,554
526,763
518,167
507,714
495,392
481,237
465,332
447,822
428,876
408,675
387,419
365,321
342,57
319,348
295,825
272,148
248,484
225,009
201,919
179,439
157,773
137,102
117,56
99,229
82,153
66,343
51,785
38,436
26,258
15,214
5,263
−3,63
−11,521
−18,485
−24,628
−30,087
−35,015
−39,565
−43,864
−48,003
−52,046
−56,032
−59,98
−63,893
−67,767
−71,595
−75,373
−79,097
−82,761
−86,353
−89,839
−93,172
−96,286
−99,109
−101,584
−103,682
−105,383
−106,686
−107,602
−108,147
−108,35
−108,247
−107,871
−107,248
−106,405
−105,364
−104,155
−102,813
−101,381
−99,904
−98,418
−96,951
−95,523
−94,152
−92,847
−91,615
−90,458
−89,368
−88,342
−87,38
−86,482
−85,651
−84,885
−84,183
−83,542
−82,957
−82,427
−81,948
−81,518
−81,135
−80,796
−80,5
−80,246
−80,037
−79,87
−79,745
−79,661
−79,614
−79,603
−79,627
−79,683
−79,77
−79,887
−80,031
−80,203
−80,404
−80,632
−80,889
−81,175
−81,49
−81,836
−82,212
−82,619
−83,058
−83,529
−84,031
−84,565
−85,13
−85,726
−86,352
−87,008
−87,693
−88,405
−89,145
−89,911
−90,702
−91,515
−92,35
−93,206
−94,079
−94,968
−95,872
−96,787
−97,713
−98,646
−99,584
−100,525
−101,465
−102,402
−103,332
−104,254
−105,164
−106,058
−106,936
−107,794
−108,63
−109,442
−110,228
−110,988
−111,719
−112,421
−113,093
−113,733
−114,342
−114,918
−115,463
−115,975
−116,456
−116,905
−117,323
−117,711
−118,07
−118,401
−118,704
−118,981
−119,232
−119,46
−119,665
−119,85
−120,015
−120,162
−120,293
−120,41
−120,515
−120,608
−120,693
−120,769
−120,84
−120,905
−120,966
−121,025
−121,083
−121,14
−121,198
−121,258
−121,321
−121,387
−121,457
−121,533
−121,615
−121,703
−121,798
−121,9
−122,01
−122,128
−122,254
−122,39
−122,535
−122,69
−122,854
−123,028
−123,212
−123,405
−123,608
−123,821
−124,042
−124,272
−124,51
−124,756
−125,009
−125,269
−125,536
−125,808
−126,084
−126,365
−126,648
−126,933
−127,218
−127,502
−127,784
−128,062
−128,335
−128,602
−128,861
−129,11
−129,349
−129,575
−129,787
−129,984
−130,163
−130,324
−130,466
−130,586
−130,684
−130,759
−130,811
−130,837
−130,839
−130,816
−130,767
−130,693
−130,593
−130,469
−130,321
−130,15
−129,957
−129,744
−129,513
−129,266
−129,006
−128,735
−128,455
−128,169
−127,879
−127,589
−127,301
−127,017
−126,741
−126,476
−126,223
−125,987
−125,768
−125,571
−125,397
−125,248
−125,127
−125,035
−124,972
−124,941
−124,942
−124,975
−125,041
−125,139
−125,267
−125,426
−125,612
−125,823
−126,056
−126,307
−126,571
−126,844
−127,12
−127,394
−127,66
−127,914
−128,147
−128,356
−128,534
−128,673
−128,769
−128,813
−128,799
−128,721
−128,571
−128,343
−128,029
−127,622
−127,116
−126,505
−125,783
−124,946
−123,988
−122,905
−121,696
−120,358
−118,89
−117,29
−115,557
−113,69
−111,69
−109,559
−107,3
−104,916
−102,409
−99,785
−97,052
−94,219
−91,291
−88,272
−85,164
−81,974
−78,717
−75,408
−72,071
−68,73
−65,412
−62,154
−58,999
−55,985
−53,15
−50,519
−48,109
−45,94
−44,038
−42,428
−41,146
−40,211
−39,624
−39,384
−39,479
−39,879
−40,547
−41,419
−42,405
−43,439
−44,47
−45,461
−46,405
−47,291
−48,098
−48,81
−49,401
−49,846
−50,146
−50,306
−50,333
−50,282
−50,211
−50,205
−50,385
−50,825
−51,565
−52,643
−54,04
−55,699
−57,609
−59,787
−62,31
−65,354
−69,071
−73,532
−78,831
−85,068
−92,246
−100,262
−108,836
−117,463
−125,665
−133,168
−139,705
−144,972
−148,744
−150,833
−151,262
−150,378
−148,544
−145,9
−142,504
−139,19
−137,421
−138,234
−142,486
−148,706
−153,097
−154,488
−152,758
−150,004
−152,081
−160,09
−172,672
−187,545
−196,977
−195,496
−177,675
−134,897
−63,161
40,78
177,122
338,696
518,914
708,106
893,508
1063,026
1199,218
1286,545
1316,296
1285,647
1203,591
1083,1
934,614
767,345
585,316
394,141
205,937
34,914
−104,02
−202,941
−264,922
−299,418
−317,798
−326,238
−323,567
−305,44
−269,498
−219,886
−166,83
−121,427
−90,347
−73,615
−65,836
−61,195
−56,859
−53,011
−51,991
−55,112
−61,677
−70,219
−78,687
−85,607
−90,41
−92,708
−92,39
−89,706
−84,912
−78,14
−69,694
−60,055
−49,783
−39,681
−30,517
−22,609
−16,13
−11,285
−8,075
−6,387
−6,014
−6,456
−7,158
−7,812
−8,193
−8,108
−7,485
−6,276
−4,474
−2,213
0,334
3,088
6,028
9,144
12,454
15,958
19,644
23,532
27,65
31,996
36,555
41,304
46,217
51,285
56,511
61,882
67,389
73,007
78,697
84,43
90,182
95,93
101,666
107,397
113,137
118,913
124,744
130,642
136,617
142,667
148,791
154,996
161,271
167,619
174,071
180,662
187,445
194,479
201,786
209,364
217,205
225,285
233,598
242,144
250,916
259,916
269,146
278,607
288,334
298,347
308,629
319,144
329,828
340,606
351,456
362,383
373,391
384,493
395,684
406,942
418,262
429,619
440,969
452,252
463,363
474,199
484,69
494,78
504,427
513,593
522,181
530,049
537,067
543,089
547,976
551,604
553,826
554,525
553,627
551,085
546,898
541,077
533,613
524,489
513,695
501,22
487,111
471,462
454,368
435,956
416,375
395,787
374,392
352,377
329,895
307,081
284,055
260,923
237,826
214,921
192,365
170,335
148,984
128,44
108,832
90,267
72,809
56,496
41,318
27,258
14,313
2,481
−8,239
−17,855
−26,405
−33,951
−40,567
−46,355
−51,427
−55,897
−59,895
−63,548
−66,951
−70,168
−73,24
−76,182
−79,019
−81,78
−84,483
−87,144
−89,766
−92,341
−94,861
−97,305
−99,637
−101,815
−103,784
−105,482
−106,872
−107,938
−108,676
−109,101
−109,229
−109,074
−108,661
−108,019
−107,176
−106,159
−104,992
−103,698
−102,305
−100,848
−99,363
−97,893
−96,467
−95,108
−93,832
−92,646
−91,558
−90,569
−89,679
−88,88
−88,167
−87,537
−86,989
−86,523
−86,139
−85,831
−85,595
−85,426
−85,318
−85,268
−85,271
−85,324
−85,422
−85,564
−85,747
−85,97
−86,232
−86,531
−86,862
−87,223
−87,61
−88,02
−88,451
−88,898
−89,36
−89,835
−90,32
−90,814
−91,318
−91,831
−92,351
−92,881
−93,418
−93,964
−94,519
−95,082
−95,653
−96,232
−96,82
−97,415
−98,017
−98,627
−99,243
−99,866
−100,494
−101,128
−101,767
−102,409
−103,054
−103,702
−104,352
−105,002
−105,654
−106,305
−106,956
−107,605
−108,252
−108,896
−109,535
−110,17
−110,798
−111,417
−112,027
−112,626
−113,212
−113,784
−114,339
−114,878
−115,397
−115,897
−116,376
−116,832
−117,266
−117,677
−118,063
−118,426
−118,765
−119,08
−119,37
−119,638
−119,882
−120,104
−120,303
−120,481
−120,638
−120,774
−120,89
−120,987
−121,066
−121,128
−121,174
−121,205
−121,222
−121,227
−121,221
−121,206
−121,184
−121,155
−121,124
−121,09
−121,056
−121,024
−120,995
−120,971
−120,955
−120,946
−120,946
−120,956
−120,978
−121,012
−121,058
−121,117
−121,19
−121,277
−121,379
−121,494
−121,624
−121,769
−121,928
−122,1
−122,286
−122,485
−122,696
−122,919
−123,151
−123,394
−123,644
−123,9
−124,161
−124,426
−124,691
−124,956
−125,219
−125,476
−125,727
−125,969
−126,201
−126,421
−126,627
−126,818
−126,993
−127,149
−127,286
−127,404
−127,499
−127,573
−127,623
−127,649
−127,651
−127,629
−127,581
−127,509
−127,412
−127,291
−127,146
−126,979
−126,79
−126,58
−126,35
−126,104
−125,841
−125,566
−125,278
−124,982
−124,68
−124,374
−124,066
−123,76
−123,457
−123,159
−122,869
−122,589
−122,321
−122,068
−121,83
−121,612
−121,414
−121,24
−121,091
−120,969
−120,876
−120,812
−120,78
−120,779
−120,811
−120,876
−120,973
−121,103
−121,265
−121,457
−121,679
−121,928
−122,203
−122,5
−122,816
−123,149
−123,494
−123,848
−124,207
−124,567
−124,924
−125,275
−125,614
−125,938
−126,241
−126,519
−126,766
−126,974
−127,136
−127,246
−127,297
−127,282
−127,194
−127,027
−126,776
−126,434
−125,999
−125,467
−124,831
−124,088
−123,234
−122,264
−121,174
−119,962
−118,623
−117,154
−115,554
−113,82
−111,954
−109,956
−107,826
−105,563
−103,164
−100,632
−97,972
−95,194
−92,309
−89,336
−86,295
−83,213
−80,125
−77,065
−74,067
−71,16
−68,37
−65,722
−63,237
−60,937
−58,846
−56,976
−55,327
−53,896
−52,671
−51,637
−50,775
−50,053
−49,424
−48,844
−48,274
−47,681
−47,047
−46,362
−45,632
−44,867
−44,079
−43,305
−42,598
−42,017
−41,631
−41,491
−41,635
−42,111
−42,986
−44,324
−46,178
−48,574
−51,508
−54,955
−58,866
−63,188
−67,845
−72,698
−77,615
−82,501
−87,307
−92,1
−96,995
−102,036
−107,285
−112,862
−118,804
−125,09
−131,581
−137,851
−143,459
−148,113
−151,463
−153,176
−153,051
−150,872
−146,654
−140,886
−134,121
−126,843
−119,719
−113,439
−108,761
−106,72
−108,078
−113,186
−122,243
−135,174
−151,675
−170,409
−188,417
−202,19
−208,141
−204,689
−193,192
−174,478
−147,636
−107,91
−46,666
43,915
167,883
322,785
501,006
690,691
877,673
1048,393
1186,481
1277,704
1313,202
1288,824
1211,704
1093,76
945,554
776,975
592,241
396,714
202,59
25,561
−116,814
−214,619
−270,594
−296,355
−306,912
−310,961
−308,258
−293,625
−262,659
−218,193
−169,826
−128,426
−100,978
−87,49
−82,352
−79,599
−76,141
−72,136
−69,979
−71,044
−74,802
−79,792
−83,978
−86,128
−85,909
−83,181
−78,284
−71,781
−64,167
−56,041
−48
−40,474
−33,894
−28,685
−24,955
−22,577
−21,341
−20,895
−20,906
−21,151
−21,371
−21,31
−20,841
−19,891
−18,45
−16,587
−14,349
−11,766
−8,893
−5,767
−2,414
1,143
4,911
8,888
13,046
17,374
21,853
26,464
31,201
36,044
40,973
45,984
51,072
56,234
61,475
66,78
72,133
77,517
82,899
88,262
93,606
98,929
104,239
109,551
114,875
120,232
125,653
131,159
136,769
142,506
148,388
154,445
160,715
167,236
174,042
181,162
188,612
196,399
204,52
212,962
221,695
230,688
239,905
249,315
258,898
268,628
278,472
288,398
298,362
308,325
318,259
328,136
337,927
347,625
357,231
366,773
376,306
385,877
395,519
405,258
415,095
425,026
435,046
445,133
455,256
465,378
475,446
485,408
495,217
504,79
514,013
522,735
530,761
537,898
543,971
548,809
552,265
554,213
554,547
553,186
550,082
545,19
538,477
529,909
519,442
507,077
492,861
476,891
459,327
440,35
420,151
398,936
376,919
354,291
331,234
307,914
284,477
261,08
237,891
215,094
192,903
171,509
151,081
131,744
113,567
96,584
80,805
66,209
52,757
40,413
29,142
18,91
9,685
1,421
−5,948
−12,518
−18,417
−23,783
−28,764
−33,475
−37,998
−42,392
−46,691
−50,911
−55,053
−59,116
−63,093
−66,979
−70,775
−74,476
−78,074
−81,54
−84,831
−87,886
−90,636
−93,031
−95,043
−96,657
−97,874
−98,706
−99,172
−99,302
−99,132
−98,697
−98,026
−97,145
−96,077
−94,855
−93,514
−92,098
−90,652
−89,216
−87,816
−86,476
−85,213
−84,039
−82,962
−81,984
−81,1
−80,306
−79,603
−78,99
−78,469
−78,041
−77,701
−77,446
−77,27
−77,17
−77,141
−77,179
−77,279
−77,437
−77,649
−77,914
−78,228
−78,59
−78,995
−79,439
−79,917
−80,424
−80,956
−81,508
−82,077
−82,656
−83,244
−83,837
−84,433
−85,029
−85,623
−86,214
−86,801
−87,383
−87,959
−88,53
−89,094
−89,653
−90,205
−90,751
−91,292
−91,827
−92,358
−92,884
−93,407
−93,927
−94,445
−94,962
−95,478
−95,994
−96,51
−97,028
−97,547
−98,069
−98,593
−99,119
−99,649
−100,183
−100,719
−101,26
−101,803
−102,35
−102,899
−103,45
−104,003
−104,556
−105,11
−105,662
−106,213
−106,761
−107,306
−107,846
−108,381
−108,911
−109,433
−109,949
−110,457
−110,956
−111,447
−111,929
−112,402
−112,865
−113,32
−113,765
−114,201
−114,628
−115,048
−115,459
−115,863
−116,261
−116,652
−117,036
−117,416
−117,79
−118,16
−118,525
−118,887
−119,245
−119,6
−119,953
−120,303
−120,652
−120,999
−121,345
−121,69
−122,034
−122,377
−122,718
−123,059
−123,397
−123,734
−124,068
−124,4
−124,728
−125,051
−125,369
−125,681
−125,986
−126,282
−126,569
−126,845
−127,109
−127,36
−127,597
−127,819
−128,027
−128,218
−128,393
−128,552
−128,694
−128,819
−128,928
−129,021
−129,099
−129,161
−129,21
−129,247
−129,272
−129,286
−129,292
−129,291
−129,284
−129,273
−129,259
−129,245
−129,232
−129,222
−129,218
−129,221
−129,234
−129,259
−129,298
−129,354
−129,43
−129,526
−129,645
−129,789
−129,959
−130,155
−130,38
−130,634
−130,915
−131,225
−131,561
−131,924
−132,31
−132,719
−133,146
−133,589
−134,045
−134,509
−134,979
−135,45
−135,917
−136,377
−136,825
−137,257
−137,667
−138,051
−138,402
−138,714
−138,982
−139,201
−139,362
−139,459
−139,484
−139,431
−139,293
−139,064
−138,738
−138,309
−137,772
−137,124
−136,362
−135,484
−134,487
−133,367
−132,122
−130,753
−129,259
−127,641
−125,897
−124,029
−122,039
−119,932
−117,714
−115,386
−112,951
−110,407
−107,76
−105,022
−102,207
−99,334
−96,424
−93,503
−90,605
−87,771
−85,038
−82,441
−80,005
−77,749
−75,695
−73,872
−72,307
−71,029
−70,054
−69,384
−69,017
−68,944
−69,135
−69,552
−70,129
−70,788
−71,471
−72,135
−72,751
−73,307
−73,786
−74,172
−74,448
−74,603
−74,631
−74,531
−74,31
−73,984
−73,605
−73,251
−73,031
−73,048
−73,371
−74,036
−75,055
−76,436
−78,161
−80,172
−82,456
−85,029
−87,971
−91,462
−95,654
−100,61
−106,404
−113,113
−120,659
−128,927
−137,663
−146,301
−154,386
−161,608
−167,585
−172,029
−174,76
−175,523
−174,318
−171,699
−168,138
−163,934
−159,626
−155,704
−152,569
−151,475
−153,524
−158,293
−165,82
−174,995
−183,261
−190,135
−194,407
−195,038
−193,521
−189,797
−182,505
−168,887
−141,926
−93,047
−15,709
93,68
233,703
398,076
578,509
764,567
942,692
1096,391
1207,78
1262,033
1253,261
1187,271
1078,166
941,875
789,27
623,57
445,235
258,363
74,378
−88,604
−213,888
−294,193
−332,574
−342,211
−338,805
−331,529
−324,416
−314,741
−296,564
−268,746
−232,426
−191,733
−153,289
−120,733
−95,943
−79,499
−70,056
−66,391
−67,427
−71,806
−78,275
−85,441
−91,827
−96,149
−97,472
−95,57
−90,764
−83,625
−74,94
−65,539
−56,207
−47,764
−40,92
−35,946
−32,775
−31,172
−30,736
−31,073
−31,855
−32,71
−33,282
−33,377
−32,92
−31,918
−30,452
−28,578
−26,327
−23,75
−20,897
−17,797
−14,467
−10,896
−7,079
−3,034
1,217
5,651
10,245
14,983
19,852
24,836
29,928
35,125
40,419
45,809
51,282
56,823
62,415
68,022
73,63
79,236
84,839
90,453
96,09
101,764
107,492
113,299
119,204
125,227
131,389
137,71
144,22
150,951
157,931
165,196
172,768
180,658
188,869
197,391
206,199
215,271
224,578
234,091
243,785
253,636
263,615
273,69
283,822
293,978
304,127
314,24
324,286
334,242
344,098
353,868
363,586
373,282
382,98
392,696
402,431
412,187
421,955
431,715
441,44
451,088
460,606
469,948
479,066
487,904
496,388
504,407
511,812
518,463
524,209
528,912
532,438
534,653
535,45
534,757
532,519
528,704
523,29
516,245
507,541
497,16
485,091
471,37
456,073
439,294
421,168
401,848
381,507
360,339
338,516
316,185
293,487
270,551
247,521
224,558
201,827
179,51
157,808
136,905
116,964
98,118
80,44
63,972
48,721
34,665
21,784
10,066
−0,513
−9,977
−18,369
−25,752
−32,199
−37,814
−42,741
−47,132
−51,148
−54,923
−58,544
−62,073
−65,549
−68,989
−72,409
−75,815
−79,207
−82,585
−85,946
−89,281
−92,582
−95,818
−98,935
−101,866
−104,533
−106,882
−108,881
−110,515
−111,783
−112,692
−113,259
−113,51
−113,479
−113,198
−112,691
−111,983
−111,092
−110,047
−108,883
−107,639
−106,36
−105,078
−103,819
−102,601
−101,44
−100,343
−99,317
−98,359
−97,462
−96,622
−95,836
−95,105
−94,429
−93,807
−93,237
−92,716
−92,239
−91,804
−91,408
−91,049
−90,724
−90,431
−90,17
−89,94
−89,743
−89,579
−89,446
−89,344
−89,271
−89,225
−89,207
−89,215
−89,247
−89,302
−89,38
−89,481
−89,605
−89,752
−89,922
−90,116
−90,334
−90,577
−90,845
−91,139
−91,459
−91,805
−92,178
−92,577
−93,001
−93,45
−93,924
−94,421
−94,941
−95,484
−96,048
−96,632
−97,235
−97,856
−98,493
−99,146
−99,811
−100,489
−101,176
−101,871
−102,573
−103,279
−103,987
−104,697
−105,404
−106,108
−106,806
−107,497
−108,177
−108,846
−109,502
−110,141
−110,764
−111,368
−111,952
−112,516
−113,057
−113,576
−114,071
−114,543
−114,991
−115,414
−115,813
−116,188
−116,539
−116,866
−117,168
−117,448
−117,705
−117,94
−118,154
−118,348
−118,522
−118,679
−118,818
−118,942
−119,051
−119,146
−119,229
−119,301
−119,363
−119,418
−119,466
−119,508
−119,548
−119,585
−119,621
−119,657
−119,694
−119,734
−119,777
−119,825
−119,877
−119,936
−120,001
−120,074
−120,155
−120,245
−120,344
−120,452
−120,569
−120,696
−120,832
−120,977
−121,131
−121,292
−121,461
−121,636
−121,816
−122,001
−122,19
−122,38
−122,571
−122,76
−122,947
−123,13
−123,306
−123,475
−123,635
−123,783
−123,92
−124,042
−124,148
−124,238
−124,309
−124,36
−124,39
−124,397
−124,38
−124,34
−124,275
−124,184
−124,068
−123,927
−123,761
−123,571
−123,359
−123,124
−122,87
−122,597
−122,308
−122,006
−121,693
−121,372
−121,045
−120,717
−120,389
−120,065
−119,748
−119,441
−119,146
−118,866
−118,605
−118,365
−118,148
−117,958
−117,797
−117,668
−117,572
−117,512
−117,489
−117,505
−117,559
−117,653
−117,787
−117,96
−118,172
−118,42
−118,704
−119,02
−119,364
−119,733
−120,122
−120,527
−120,94
−121,358
−121,772
−122,179
−122,571
−122,944
−123,292
−123,609
−123,887
−124,117
−124,294
−124,411
−124,459
−124,432
−124,321
−124,118
−123,82
−123,42
−122,915
−122,299
−121,564
−120,704
−119,718
−118,604
−117,365
−116
−114,511
−112,898
−111,165
−109,316
−107,353
−105,279
−103,092
−100,791
−98,378
−95,861
−93,246
−90,544
−87,756
−84,882
−81,918
−78,862
−75,722
−72,527
−69,31
−66,111
−62,969
−59,907
−56,967
−54,217
−51,686
−49,354
−47,143
−44,962
−42,8
−40,764
−38,969
−37,45
−36,245
−35,459
−35,314
−36,078
−37,803
−40,252
−43,05
−45,945
−48,768
−51,299
−53,176
−53,936
−53,354
−51,623
−49,205
−46,46
−43,612
−40,881
−38,586
−37,204
−37,076
−38,184
−40,23
−42,938
−46,144
−49,782
−53,764
−57,847
−61,837
−65,72
−69,669
−73,985
−78,873
−84,363
−90,461
−97,222
−104,613
−112,542
−120,717
−128,516
−135,41
−141,016
−144,945
−146,913
−146,748
−144,321
−139,846
−134,025
−127,527
−121,021
−115,289
−111,002
−108,877
−109,61
−113,614
−120,903
−131,35
−144,745
−159,856
−174,358
−185,718
−191,012
−189,079
−181,307
−167,671
−146,992
−114,868
−62,726
15,154
122,061
256,812
412,134
581,565
755,747
923,087
1072,166
1186,257
1252,273
1264,24
1220,795
1131,41
1006,914
854,093
681,322
494,339
302,702
123,7
−27,68
−140,673
−213,104
−253,382
−271,277
−274,231
−265,87
−246,719
−219,561
−189,055
−160,149
−136,03
−115,469
−96,403
−78,04
−61,124
−48,565
−42,248
−41,779
−45,601
−51,409
−57,435
−62,9
−67,206
−69,782
−70,272
−68,579
−65,081
−60,509
−55,432
−50,101
−44,843
−40,074
−36,051
−32,946
−30,587
−28,413
−26,165
−23,945
−21,727
−19,467
−17,134
−14,586
−11,907
−9,421
−7,195
−5,056
−2,908
−0,646
1,768
4,247
6,816
9,609
12,652
15,888
19,266
22,725
26,252
29,896
33,669
37,554
41,553
45,682
49,963
54,417
59,053
63,863
68,833
73,952
79,2
84,542
89,955
95,427
100,948
106,526
112,164
117,871
123,659
129,55
135,565
141,727
148,06
154,588
161,337
168,334
175,606
183,182
191,074
199,287
207,81
216,617
225,682
234,978
244,477
254,15
263,967
273,895
283,899
293,937
303,972
313,973
323,907
333,749
343,494
353,145
362,728
372,299
381,904
391,578
401,353
411,225
421,186
431,227
441,317
451,431
461,534
471,573
481,499
491,258
500,754
509,873
518,465
526,327
533,266
539,097
543,633
546,747
548,331
548,286
546,556
543,099
537,867
530,841
521,996
511,301
498,781
484,49
468,52
451,045
432,253
412,342
391,547
370,058
348,045
325,68
303,099
280,43
257,829
235,442
213,425
191,975
171,252
151,403
132,562
114,789
98,112
82,534
68,01
54,51
42,018
30,505
19,955
10,357
1,661
−6,181
−13,232
−19,603
−25,408
−30,762
−35,8
−40,61
−45,244
−49,744
−54,114
−58,356
−62,482
−66,495
−70,394
−74,19
−77,876
−81,447
−84,9
−88,203
−91,311
−94,177
−96,736
−98,946
−100,792
−102,265
−103,377
−104,146
−104,59
−104,735
−104,616
−104,259
−103,693
−102,941
−102,021
−100,962
−99,798
−98,566
−97,307
−96,056
−94,834
−93,662
−92,553
−91,514
−90,553
−89,668
−88,854
−88,108
−87,428
−86,814
−86,268
−85,789
−85,375
−85,021
−84,724
−84,478
−84,282
−84,13
−84,019
−83,945
−83,906
−83,9
−83,925
−83,98
−84,062
−84,169
−84,296
−84,442
−84,604
−84,778
−84,963
−85,155
−85,353
−85,556
−85,764
−85,975
−86,19
−86,409
−86,633
−86,862
−87,097
−87,339
−87,589
−87,848
−88,116
−88,394
−88,683
−88,984
−89,298
−89,625
−89,967
−90,323
−90,695
−91,083
−91,488
−91,909
−92,347
−92,802
−93,273
−93,76
−94,262
−94,779
−95,31
−95,853
−96,408
−96,972
−97,544
−98,123
−98,706
−99,291
−99,876
−100,459
−101,037
−101,609
−102,173
−102,727
−103,269
−103,797
−104,311
−104,807
−105,286
−105,746
−106,186
−106,605
−107,003
−107,38
−107,734
−108,065
−108,374
−108,661
−108,926
−109,17
−109,392
−109,595
−109,779
−109,945
−110,094
−110,229
−110,35
−110,459
−110,558
−110,649
−110,733
−110,812
−110,888
−110,963
−111,038
−111,114
−111,193
−111,277
−111,366
−111,462
−111,564
−111,675
−111,795
−111,923
−112,062
−112,21
−112,368
−112,536
−112,714
−112,902
−113,099
−113,305
−113,52
−113,743
−113,973
−114,209
−114,451
−114,697
−114,946
−115,197
−115,448
−115,7
−115,949
−116,196
−116,439
−116,677
−116,908
−117,132
−117,348
−117,555
−117,753
−117,94
−118,117
−118,282
−118,436
−118,578
−118,708
−118,826
−118,931
−119,024
−119,105
−119,173
−119,228
−119,271
−119,302
−119,32
−119,326
−119,321
−119,303
−119,274
−119,234
−119,182
−119,12
−119,048
−118,966
−118,874
−118,772
−118,661
−118,542
−118,413
−118,275
−118,129
−117,975
−117,812
−117,641
−117,462
−117,276
−117,083
−116,884
−116,679
−116,47
−116,256
−116,04
−115,821
−115,602
−115,383
−115,167
−114,954
−114,747
−114,548
−114,358
−114,179
−114,013
−113,861
−113,726
−113,609
−113,512
−113,437
−113,386
−113,361
−113,363
−113,395
−113,459
−113,557
−113,69
−113,859
−114,065
−114,309
−114,59
−114,909
−115,265
−115,657
−116,084
−116,544
−117,035
−117,554
−118,099
−118,666
−119,249
−119,846
−120,45
−121,057
−121,66
−122,256
−122,837
−123,398
−123,933
−124,436
−124,9
−125,319
−125,684
−125,988
−126,223
−126,382
−126,455
−126,435
−126,312
−126,081
−125,735
−125,267
−124,672
−123,947
−123,089
−122,095
−120,964
−119,692
−118,279
−116,722
−115,019
−113,17
−111,176
−109,037
−106,758
−104,343
−101,8
−99,137
−96,364
−93,489
−90,519
−87,459
−84,32
−81,118
−77,874
−74,612
−71,364
−68,167
−65,06
−62,085
−59,275
−56,658
−54,249
−52,058
−50,09
−48,352
−46,854
−45,614
−44,646
−43,956
−43,545
−43,402
−43,502
−43,807
−44,271
−44,841
−45,489
−46,199
−46,976
−47,847
−48,848
−50,02
−51,386
−52,95
−54,699
−56,624
−58,723
−60,993
−63,443
−66,084
−68,929
−71,999
−75,295
−78,779
−82,361
−85,951
−89,47
−92,881
−96,247
−99,652
−103,16
−106,884
−110,967
−115,462
−120,347
−125,472
−130,453
−134,903
−138,572
−141,175
−142,449
−142,329
−140,795
−137,971
−134,312
−130,274
−126,173
−122,474
−119,648
−118,001
−118,076
−120,39
−125,094
−132,421
−142,581
−155,319
−170,336
−186,391
−200,392
−209,138
−209,572
−200,434
−183,623
−160,385
−129,678
−86,483
−21,959
71,558
197,202
351,798
527,333
712,605
894,399
1057,919
1185,817
1262,19
1277,948
1235,143
1145,956
1026,918
891,135
741,161
575,419
394,936
207,376
32,427
−109,717
−208,795
−264,576
−289,552
−299,811
−302,871
−300,008
−287,315
−258,618
−216,019
−167,386
−121,018
−86,095
−65,027
−53,935
−49,302
−46,809
−44,888
−45,415
−48,726
−54,628
−62,204
−69,232
−74,655
−78,094
−79,166
−78,136
−75,342
−71,044
−65,769
−59,892
−53,421
−46,586
−39,788
−33,319
−27,543
−22,625
−18,417
−14,908
−12,277
−10,502
−9,447
−8,885
−8,373
−7,66
−6,714
−5,439
−3,736
−1,573
1,088
4,181
7,519
11,021
14,668
18,427
22,32
26,343
30,472
34,718
39,107
43,642
48,33
53,163
58,116
63,181
68,342
73,582
78,884
84,213
89,546
94,876
100,199
105,519
110,849
116,198
121,586
127,039
132,579
138,229
144,016
149,965
156,108
162,482
169,118
176,053
183,315
190,915
198,861
207,144
215,74
224,626
233,775
243,155
252,741
262,51
272,428
282,464
292,581
302,739
312,908
323,055
333,146
343,168
353,12
363,019
372,911
382,836
392,828
402,916
413,111
423,408
433,801
444,27
454,782
465,303
475,784
486,176
496,432
506,483
516,224
525,523
534,205
542,081
548,974
554,705
559,105
562,046
563,418
563,136
561,147
557,403
551,861
544,49
535,251
524,122
511,124
496,316
479,816
461,785
442,404
421,879
400,43
378,249
355,51
332,376
308,988
285,496
262,064
238,854
216,054
193,87
172,486
152,072
132,749
114,575
97,579
81,752
67,057
53,47
40,967
29,52
19,109
9,698
1,233
−6,344
−13,126
−19,246
−24,848
−30,079
−35,063
−39,871
−44,555
−49,14
−53,632
−58,036
−62,352
−66,573
−70,696
−74,718
−78,633
−82,434
−86,096
−89,565
−92,779
−95,663
−98,163
−100,251
−101,916
−103,158
−103,989
−104,429
−104,507
−104,259
−103,721
−102,92
−101,883
−100,631
−99,195
−97,614
−95,931
−94,193
−92,44
−90,699
−88,995
−87,347
−85,768
−84,268
−82,848
−81,504
−80,236
−79,044
−77,931
−76,901
−75,954
−75,09
−74,307
−73,602
−72,972
−72,415
−71,929
−71,511
−71,157
−70,867
−70,637
−70,469
−70,361
−70,308
−70,309
−70,359
−70,454
−70,591
−70,765
−70,973
−71,209
−71,471
−71,755
−72,059
−72,38
−72,716
−73,065
−73,425
−73,796
−74,175
−74,563
−74,959
−75,36
−75,768
−76,18
−76,596
−77,017
−77,442
−77,871
−78,303
−78,74
−79,182
−79,629
−80,08
−80,538
−81,001
−81,471
−81,947
−82,43
−82,921
−83,42
−83,927
−84,444
−84,97
−85,505
−86,05
−86,604
−87,167
−87,74
−88,321
−88,91
−89,507
−90,11
−90,72
−91,336
−91,957
−92,582
−93,211
−93,843
−94,478
−95,114
−95,752
−96,389
−97,026
−97,662
−98,297
−98,929
−99,558
−100,184
−100,806
−101,424
−102,037
−102,645
−103,247
−103,843
−104,433
−105,016
−105,592
−106,16
−106,72
−107,273
−107,818
−108,356
−108,885
−109,406
−109,92
−110,425
−110,923
−111,413
−111,894
−112,368
−112,835
−113,293
−113,743
−114,185
−114,619
−115,044
−115,461
−115,87
−116,269
−116,659
−117,039
−117,409
−117,77
−118,119
−118,459
−118,787
−119,104
−119,409
−119,703
−119,985
−120,255
−120,512
−120,757
−120,989
−121,208
−121,413
−121,605
−121,783
−121,947
−122,097
−122,233
−122,355
−122,463
−122,558
−122,639
−122,707
−122,762
−122,805
−122,835
−122,855
−122,863
−122,861
−122,849
−122,827
−122,798
−122,76
−122,714
−122,662
−122,604
−122,54
−122,471
−122,397
−122,32
−122,239
−122,155
−122,069
−121,981
−121,892
−121,803
−121,714
−121,626
−121,538
−121,452
−121,368
−121,286
−121,206
−121,129
−121,055
−120,983
−120,916
−120,852
−120,792
−120,737
−120,688
−120,645
−120,607
−120,578
−120,556
−120,542
−120,538
−120,545
−120,563
−120,593
−120,636
−120,694
−120,767
−120,855
−120,961
−121,083
−121,223
−121,381
−121,557
−121,753
−121,968
−122,203
−122,458
−122,734
−123,032
−123,351
−123,692
−124,054
−124,436
−124,838
−125,257
−125,693
−126,143
−126,604
−127,075
−127,553
−128,034
−128,515
−128,991
−129,459
−129,914
−130,351
−130,766
−131,152
−131,506
−131,823
−132,096
−132,323
−132,497
−132,614
−132,669
−132,655
−132,567
−132,4
−132,148
−131,803
−131,36
−130,811
−130,153
−129,381
−128,489
−127,476
−126,337
−125,073
−123,684
−122,17
−120,53
−118,766
−116,876
−114,861
−112,722
−110,461
−108,08
−105,582
−102,972
−100,257
−97,449
−94,554
−91,582
−88,54
−85,432
−82,269
−79,068
−75,844
−72,619
−69,42
−66,278
−63,236
−60,336
−57,613
−55,093
−52,797
−50,734
−48,915
−47,349
−46,039
−44,999
−44,236
−43,752
−43,551
−43,628
−43,961
−44,515
−45,239
−46,072
−46,982
−47,95
−48,964
−50,04
−51,199
−52,464
−53,879
−55,458
−57,191
−59,073
−61,082
−63,205
−65,463
−67,877
−70,466
−73,268
−76,276
−79,459
−82,806
−86,241
−89,638
−92,918
−96,011
−98,927
−101,825
−104,843
−108,075
−111,687
−115,85
−120,642
−126,101
−132,055
−138,063
−143,771
−148,865
−152,944
−155,633
−156,568
−155,408
−152,152
−147,225
−141,031
−134,09
−127,146
−121,059
−116,943
−115,911
−118,796
−125,972
−137,502
−153,238
−171,754
−189,968
−204,342
−211,148
−208,615
−198,215
−180,784
−155,091
−116,42
−56,189
33,441
156,019
309,163
485,691
673,425
857,687
1023,706
1154,078
1235,548
1261,721
1231,919
1155,82
1045,506
909,967
756,419
587,083
406,102
224,323
56,105
−82,68
−183,002
−246,486
−282,442
−302,757
−313,956
−316,234
−305,598
−279,82
−242,847
−201,664
−164,837
−136,799
−116,007
−100,109
−85,94
−72,476
−61,965
−55,356
−52,731
−53,552
−55,853
−58,467
−61,073
−63,258
−64,84
−65,646
−65,579
−64,616
−62,751
−59,941
−56
−50,9
−44,867
−38,258
−31,368
−24,524
−18,112
−12,418
−7,794
−4,483
−2,463
−1,559
−1,528
−2,017
−2,605
−2,999
−2,946
−2,248
−0,863
1,22
3,978
7,282
10,952
14,866
18,946
23,157
27,519
32,028
36,66
41,415
46,301
51,32
56,471
61,722
67,027
72,339
77,618
82,849
88,032
93,175
98,282
103,366
108,436
113,519
118,645
123,842
129,135
134,543
140,086
145,798
151,717
157,889
164,36
171,157
178,3
